Time (s),Fluorescence Intensity (a.u.)
0.0,2.5158609825102882
0.3209986686706543,2.5155240483539094
0.4721393585205078,2.51686021090535
0.6368169784545898,2.515637217078189
0.7800891399383545,2.515869341563786
0.927365779876709,2.517605452674897
1.0660452842712402,2.5187551440329217
1.211005449295044,2.5168145576131686
1.3558111190795898,2.514557613168724
1.4978365898132324,2.516448688271605
1.641183614730835,2.516385673868313
1.7842917442321777,2.5169868827160493
1.9314641952514648,2.5172672325102883
2.073596477508545,2.5168518518518517
2.2147605419158936,2.5158056841563785
2.365288734436035,2.514773019547325
2.509643077850342,2.5169412294238684
2.6744863986968994,2.5163310185185184
2.8183512687683105,2.5159471450617286
2.9607667922973633,2.5175385802469137
3.1070945262908936,2.5167605452674895
3.2502896785736084,2.517676183127572
3.393254041671753,2.516658950617284
3.5384278297424316,2.5154327417695472
3.681218385696411,2.515958076131687
3.824592113494873,2.515334362139918
4.058217763900757,2.5161439043209874
4.213396310806274,2.518371270576132
4.403775691986084,2.516202417695473
4.571927785873413,2.5180118312757203
4.7430338859558105,2.51532728909465
4.915272951126099,2.5159272119341565
5.090787172317505,2.516979809670782
5.262373685836792,2.5175398662551443
5.433452606201172,2.5163766718106997
5.6111533641815186,2.51688850308642
5.779524564743042,2.5165213477366257
5.950954914093018,2.5163226594650205
6.12329888343811,2.5160243055555553
6.29620361328125,2.5167457561728397
6.466989517211914,2.5165136316872427
6.640368938446045,2.516678240740741
6.813249111175537,2.514942772633745
6.984737396240234,2.5154070216049385
7.157527923583984,2.51522762345679
7.339166879653931,2.51842271090535
7.531292915344238,2.517309027777778
7.703889846801758,2.516704603909465
7.877901077270508,2.5151781121399175
8.048112392425537,2.517275591563786
8.220707893371582,2.51636445473251
8.391210794448853,2.5158224022633746
8.56356406211853,2.515936856995885
8.738377571105957,2.518308899176955
8.910766363143921,2.5145839763374487
9.085222244262695,2.5167200360082305
9.254912614822388,2.5139699074074073
9.427104949951172,2.5152572016460906
9.601157665252686,2.5142316100823043
9.77227783203125,2.5160249485596706
9.945260524749756,2.5155613425925925
10.11655044555664,2.5160468106995886
10.290083408355713,2.514989068930041
10.461970090866089,2.5165978652263377
10.632818460464478,2.5146939300411524
10.817138195037842,2.514892618312757
11.007271528244019,2.513766718106996
11.17969799041748,2.5145531121399176
11.351673126220703,2.514385931069959
11.524441480636597,2.5145042438271603
11.69914197921753,2.5136207561728394
11.869301795959473,2.514821244855967
12.042571067810059,2.514892618312757
12.214809656143188,2.5154809670781892
12.387653827667236,2.5138117283950616
12.572683811187744,2.5126858281893005
12.761168003082275,2.5130073302469134
12.932466983795166,2.5152887088477365
13.105889558792114,2.5136805555555557
13.276921510696411,2.5121945730452673
13.451801538467407,2.511381815843621
13.624989748001099,2.510883487654321
13.798325777053833,2.5112917952674896
13.99931263923645,2.511579218106996
14.199177026748657,2.512944958847737
14.372872114181519,2.5116448045267488
14.58132028579712,2.5156770833333333
14.772923231124878,2.5155439814814815
14.945489645004272,2.5145498971193416
15.119155645370483,2.516026234567901
15.319117069244385,2.516343878600823
15.493469476699829,2.513274819958848
15.694140195846558,2.515817901234568
15.898098468780518,2.5167753343621397
16.094499588012695,2.5137847222222223
16.269795894622803,2.5136072530864197
16.470094442367554,2.513730066872428
16.68127989768982,2.5120209619341565
16.871126413345337,2.51144933127572
17.073249578475952,2.511821630658436
17.272801160812378,2.513414994855967
17.44572424888611,2.5110757458847734
17.64582324028015,2.5116010802469138
17.818848133087158,2.5122427983539093
18.019559144973755,2.511800411522634
18.194143772125244,2.513503086419753
18.39340877532959,2.5138046553497944
18.594141483306885,2.5135943930041154
18.77608561515808,2.513343621399177
18.969221115112305,2.512886445473251
19.16922116279602,2.5151215277777776
19.3715660572052,2.5151234567901235
19.572011947631836,2.515869341563786
19.772454261779785,2.515323431069959
19.973153114318848,2.5149954989711936
20.146733045578003,2.515991512345679
20.348429203033447,2.5162082047325103
20.549739837646484,2.5167489711934157
20.746686697006226,2.5137191358024693
20.926822662353516,2.516213348765432
21.122702836990356,2.517715406378601
21.32098126411438,2.5172460133744856
21.49411940574646,2.5166576646090535
21.66796350479126,2.5171939300411523
21.870650053024292,2.517539223251029
22.06810736656189,2.5158558384773664
22.242881059646606,2.5137352109053497
22.443203687667847,2.5162686471193414
22.6153666973114,2.516778549382716
22.797033548355103,2.5157253086419753
22.988247394561768,2.5171926440329218
23.158649444580078,2.5166737397119343
23.332786798477173,2.516019161522634
23.505382776260376,2.5146604938271606
23.68142032623291,2.5172280092592594
23.879069089889526,2.5175636574074076
24.052818775177002,2.5156455761316874
24.25126075744629,2.514675282921811
24.427316427230835,2.517130272633745
24.62714910507202,2.5161625514403294
24.83582043647766,2.515835262345679
25.02774453163147,2.5163509516460905
25.200627088546753,2.515945859053498
25.37516736984253,2.514908693415638
25.576196432113647,2.515945859053498
25.774749279022217,2.5168274176954735
25.9486985206604,2.5157716049382715
26.153196096420288,2.5158847736625516
26.3508141040802,2.5160378086419755
26.551473140716553,2.516346450617284
26.752030849456787,2.5168936471193417
26.959879636764526,2.516316229423868
27.153788328170776,2.5168055555555555
27.325894832611084,2.5164525462962963
27.498892784118652,2.5156275720164607
27.69938349723816,2.517221579218107
27.87188458442688,2.516886574074074
28.04500126838684,2.5164956275720165
28.24446415901184,2.5186201131687245
28.41833996772766,2.516074459876543
28.61778688430786,2.515968364197531
28.79124903678894,2.5150861625514405
28.993131160736084,2.517510931069959
29.19442057609558,2.5189898405349793
29.395076036453247,2.5174112654320986
29.595921277999878,2.516347093621399
29.794934511184692,2.5174112654320986
29.969741344451904,2.5169843106995886
30.169775247573853,2.5165168467078187
30.34488534927368,2.5156462191358027
30.545163869857788,2.5185950360082305
30.745744705200195,2.518800797325103
30.94564723968506,2.516678883744856
31.12039852142334,2.5200636574074076
31.317160844802856,2.5173045267489713
31.48899817466736,2.516644161522634
31.662315368652344,2.5171527777777776
31.83409547805786,2.5165753600823044
32.005903482437134,2.5160011574074073
32.183305501937866,2.517647247942387
32.381420850753784,2.518581532921811
32.55227708816528,2.5164384002057614
32.7252357006073,2.516582433127572
32.89590811729431,2.5164306841563784
33.06681847572327,2.516031378600823
33.241891622543335,2.5160751028806585
33.412864446640015,2.517844007201646
33.58618426322937,2.516974022633745
33.75921034812927,2.518399562757202
33.930054903030396,2.518198302469136
34.10638880729675,2.5170955504115224
34.30449295043945,2.518633616255144
34.47627878189087,2.5176658950617283
34.650004625320435,2.517309027777778
34.83074474334717,2.5185461676954732
35.02150917053223,2.516892361111111
35.194416999816895,2.5144978137860083
35.36702299118042,2.5164107510288067
35.53970193862915,2.5172337962962965
35.71260905265808,2.516894933127572
35.88405776023865,2.5170183899176957
36.064239501953125,2.5172852366255145
36.25948452949524,2.5160860339506175
36.43120813369751,2.5161374742798355
36.60152268409729,2.5167541152263375
36.78272819519043,2.5160525977366257
36.97614502906799,2.5171437757201645
37.148834228515625,2.518116640946502
37.31916546821594,2.5162069187242797
37.49356269836426,2.515364583333333
37.6664457321167,2.5166152263374486
37.83675527572632,2.5163143004115227
38.010300397872925,2.516087962962963
38.18355870246887,2.516077031893004
38.355029344558716,2.518326260288066
38.527425050735474,2.5171746399176955
38.710201025009155,2.5159696502057614
38.90152883529663,2.5137294238683126
39.0742347240448,2.517704475308642
39.24561929702759,2.517704475308642
39.417261600494385,2.515797968106996
39.589563846588135,2.5167740483539096
39.76323366165161,2.517662037037037
39.935638189315796,2.518308899176955
40.10721254348755,2.517337319958848
40.280799865722656,2.5170518261316874
40.46249294281006,2.5176343878600824
40.65340495109558,2.5167097479423868
40.82527828216553,2.515903420781893
40.9976921081543,2.5163078703703703
41.16848802566528,2.51686149691358
41.34234809875488,2.5169212962962964
41.51352500915527,2.5172061471193414
41.684950828552246,2.5164634773662553
41.8573956489563,2.5167734053497943
42.02948474884033,2.5164789094650204
42.20231771469116,2.51636445473251
42.37678933143616,2.5178253600823046
42.55545449256897,2.5159522890946504
42.74850010871887,2.515045653292181
42.920088052749634,2.514513245884774
43.092456340789795,2.5158288323045266
43.26607584953308,2.5160416666666667
43.43878507614136,2.518301826131687
43.60864973068237,2.5170351080246913
43.78228974342346,2.516581790123457
43.953107595443726,2.518007973251029
44.12759590148926,2.5163310185185184
44.29880475997925,2.515369727366255
44.481688499450684,2.5185300925925924
44.67673897743225,2.5162390689300413
44.87424612045288,2.5165830761316874
45.047239780426025,2.5165914351851852
45.217660427093506,2.518132716049383
45.39201807975769,2.5171521347736627
45.56256604194641,2.5142875514403293
45.73608136177063,2.5158281893004117
45.909353256225586,2.516045524691358
46.08150768280029,2.5169875257201646
46.25400900840759,2.517406764403292
46.43541622161865,2.5189531893004116
46.6275749206543,2.515650077160494
46.799522161483765,2.5162905092592593
46.97158169746399,2.516826131687243
47.14234137535095,2.517838220164609
47.316319942474365,2.5165952932098765
47.48642563819885,2.5171604938271606
47.66022610664368,2.5167605452674895
47.83396530151367,2.5176980452674895
48.00699973106384,2.517188143004115
48.1790554523468,2.5178851594650205
48.36481714248657,2.5167489711934157
48.553659200668335,2.5166145833333333
48.75094962120056,2.5179603909465023
48.92599892616272,2.5163618827160494
49.09919786453247,2.51879308127572
49.27093029022217,2.517544367283951
49.443520307540894,2.5158764146090533
49.61572337150574,2.5165104166666667
49.786628007888794,2.5162628600823047
49.95910286903381,2.5174254115226335
50.13092064857483,2.5168454218106997
50.32416105270386,2.5172010030864196
50.51793932914734,2.515023148148148
50.70994687080383,2.517626028806584
50.909497022628784,2.5167361111111113
51.110957622528076,2.5173276748971194
51.313108682632446,2.5171489197530863
51.515647888183594,2.515792824074074
51.71457028388977,2.5183339763374484
51.91557240486145,2.5162673611111113
52.11707782745361,2.5156738683127573
52.31887340545654,2.517568801440329
52.526100873947144,2.5172620884773664
52.71821475028992,2.5170621141975307
52.889172315597534,2.517027391975309
53.06207299232483,2.5174864969135804
53.23332095146179,2.518940329218107
53.40560245513916,2.517388760288066
53.58009576797485,2.516945730452675
53.75078558921814,2.518073559670782
53.9211003780365,2.5169836676954733
54.09479284286499,2.5158558384773664
54.27679252624512,2.5151800411522633
54.469494342803955,2.5165014146090536
54.64219331741333,2.5167997685185184
54.81450629234314,2.5183648405349794
54.98620128631592,2.517838220164609
55.159220457077026,2.516523276748971
55.33633542060852,2.5161001800411524
55.53749394416809,2.518440072016461
55.73888111114502,2.5165901491769547
55.94111752510071,2.5164248971193417
56.137712717056274,2.516988811728395
56.34495973587036,2.5166608796296295
56.53740835189819,2.5171829989711934
56.709675550460815,2.5185924639917694
56.880900621414185,2.517239583333333
57.054553747177124,2.516195987654321
57.227060317993164,2.5171598508230453
57.40049195289612,2.5179134516460904
57.601176738739014,2.5164158950617286
57.774479150772095,2.515639146090535
57.97421336174011,2.516648019547325
58.14769530296326,2.5160731738683126
58.34714937210083,2.5165702160493826
58.51921105384827,2.5145916923868312
58.692328691482544,2.5160101594650204
58.86469650268555,2.5153497942386833
59.03770470619202,2.5166435185185185
59.21158170700073,2.5173347479423867
59.411617279052734,2.5160609567901235
59.61128115653992,2.515496399176955
59.78467655181885,2.5171096965020574
59.99476432800293,2.5161490483539093
60.186216831207275,2.513948688271605
60.35903596878052,2.516508487654321
60.53081154823303,2.5176575360082305
60.702178716659546,2.5140605709876542
60.876909494400024,2.514224537037037
61.07614850997925,2.5153227880658435
61.2486355304718,2.5165187757201646
61.42057967185974,2.5153452932098768
61.59405326843262,2.51495820473251
61.76873540878296,2.512980324074074
61.97669744491577,2.512989326131687
62.1684513092041,2.5125668724279837
62.341731786727905,2.512217721193416
62.54253602027893,2.5132908950617283
62.745521068573,2.512261445473251
62.943767070770264,2.5118930041152265
63.115488052368164,2.513059413580247
63.291770935058594,2.5108815586419753
63.487903118133545,2.5125360082304526
63.66114592552185,2.510096450617284
63.84375214576721,2.5101800411522635
64.03575730323792,2.5131610082304525
64.23540234565735,2.512554012345679
64.40955948829651,2.513165509259259
64.61159825325012,2.5142740483539097
64.81258964538574,2.5167129629629628
65.01085042953491,2.5150983796296296
65.18559288978577,2.5140772890946503
65.38553833961487,2.5163740997942385
65.55959749221802,2.5177662037037036
65.76797652244568,2.5156346450617284
65.96249794960022,2.5175662294238683
66.16201376914978,2.513388631687243
66.36200189590454,2.5138959619341565
66.53548169136047,2.514048353909465
66.7375979423523,2.5123006687242797
66.93755769729614,2.512249871399177
67.13802242279053,2.5118454218107
67.33969283103943,2.512333461934156
67.54112315177917,2.512101980452675
67.74107241630554,2.51463091563786
67.95224571228027,2.5125295781893002
68.14341926574707,2.512082690329218
68.34596228599548,2.5135583847736624
68.54648876190186,2.5141062242798355
68.74640393257141,2.513037551440329
68.92051243782043,2.5132433127572016
69.11934351921082,2.5144161522633746
69.29408669471741,2.514710648148148
69.49601030349731,2.512734696502058
69.69622898101807,2.5144894547325105
69.89954805374146,2.5157085905349796
70.09759259223938,2.51455954218107
70.29912853240967,2.5134375
70.49831891059875,2.5140290637860083
70.67228674888611,2.5132484567901234
70.87416934967041,2.515719521604938
71.07346677780151,2.513807227366255
71.27422785758972,2.5179423868312756
71.47746634483337,2.5147524434156376
71.67717814445496,2.5166210133744857
71.87998795509338,2.5150874485596706
72.08656859397888,2.5151060956790126
72.27979397773743,2.5187429269547326
72.48149108886719,2.515304140946502
72.68096566200256,2.516540637860082
72.85548067092896,2.517560442386831
73.05509114265442,2.5147884516460906
73.25658917427063,2.518287037037037
73.45896530151367,2.515778034979424
73.66064548492432,2.51582304526749
73.86216902732849,2.5161439043209874
74.06936264038086,2.5161490483539093
74.26363110542297,2.517735339506173
74.46454787254333,2.516079603909465
74.66571044921875,2.514675282921811
74.86581468582153,2.5177893518518517
75.06911063194275,2.516127829218107
75.26875281333923,2.515865483539095
75.46852827072144,2.5165586419753088
75.67093586921692,2.517908950617284
75.87161993980408,2.5165213477366257
76.07561540603638,2.5173424639917696
76.27364778518677,2.515548482510288
76.47378373146057,2.517517361111111
76.67583656311035,2.515969007201646
76.87779188156128,2.518065843621399
77.07920503616333,2.518189300411523
77.27988767623901,2.5179700360082307
77.48167514801025,2.5176774691358026
77.68053722381592,2.5181995884773665
77.88182520866394,2.5174633487654323
78.0822389125824,2.517531507201646
78.28428077697754,2.5173701131687243
78.49554014205933,2.5173218878600823
78.68623566627502,2.5166859567901234
78.88856911659241,2.516635802469136
79.08981561660767,2.5182349537037036
79.29044675827026,2.515788966049383
79.49039936065674,2.5164872685185187
79.69033932685852,2.5177944958847736
79.89345812797546,2.5167798353909463
80.09356093406677,2.5174254115226335
80.29551267623901,2.518087705761317
80.4959933757782,2.5163908179012346
80.69794583320618,2.518996913580247
80.89732670783997,2.5157542438271605
81.09837293624878,2.5152964248971195
81.30088949203491,2.5181256430041152
81.50126123428345,2.5157857510288064
81.70354008674622,2.518707561728395
81.90809464454651,2.5185461676954732
82.10588836669922,2.518292181069959
82.302330493927,2.518112782921811
82.49754786491394,2.5164107510288067
82.6794548034668,2.515726594650206
82.87950134277344,2.517698688271605
83.08099889755249,2.5179963991769547
83.28022813796997,2.5149221965020576
83.45269298553467,2.515916923868313
83.6270444393158,2.517269804526749
83.82715058326721,2.5178838734567903
84.0289855003357,2.5154314557613167
84.22945928573608,2.5177514146090534
84.44040703773499,2.5158873456790123
84.63108325004578,2.5168962191358024
84.83413529396057,2.5165792181069957
85.03295922279358,2.5154263117283953
85.23341941833496,2.5179668209876542
85.40871143341064,2.5174582047325105
85.60858178138733,2.5162352109053496
85.81624102592468,2.5164165380658434
86.01333165168762,2.516603009259259
86.20993089675903,2.5173360339506172
86.3900682926178,2.517943029835391
86.58540940284729,2.5147601594650206
86.7874002456665,2.517091049382716
86.98581504821777,2.5158198302469135
87.16099834442139,2.516997170781893
87.35910511016846,2.5175347222222224
87.53215289115906,2.5178497942386833
87.73351383209229,2.516172196502058
87.93365335464478,2.516309156378601
88.10606694221497,2.517833076131687
88.28853678703308,2.517073688271605
88.48095917701721,2.518229809670782
88.68087959289551,2.516704603909465
88.85561156272888,2.5173077417695473
89.05564022064209,2.5176929012345677
89.25637578964233,2.5157040895061726
89.45605826377869,2.515434670781893
89.62929606437683,2.517412551440329
89.83012557029724,2.5156944444444442
90.03222513198853,2.519449588477366
90.24181056022644,2.5167862654320987
90.43340110778809,2.5184786522633744
90.6374204158783,2.5179873971193416
90.83710861206055,2.5174864969135804
91.0371515750885,2.5173765432098767
91.23786044120789,2.5169553755144034
91.43947958946228,2.51802533436214
91.63956236839294,2.515466177983539
91.84002089500427,2.5152970679012348
92.0157458782196,2.5174704218106996
92.2234456539154,2.516087962962963
92.41446113586426,2.5164107510288067
92.58850836753845,2.5175977366255142
92.78851246833801,2.5181757973251027
92.99090027809143,2.516875
93.19101738929749,2.5183963477366254
93.39198803901672,2.51595100308642
93.59315490722656,2.517943672839506
93.79480266571045,2.5191956018518518
93.99611020088196,2.5185410236625514
94.19726538658142,2.5154494598765433
94.40587258338928,2.517718621399177
94.60146307945251,2.515402520576132
94.80021810531616,2.515411522633745
95.00170922279358,2.518315972222222
95.2013647556305,2.517777777777778
95.40354371070862,2.5177539866255145
95.60528254508972,2.516706532921811
95.80454802513123,2.5168801440329216
96.00546598434448,2.5157593878600824
96.20806765556335,2.516872427983539
96.41750645637512,2.516341306584362
96.61023020744324,2.516551568930041
96.8104453086853,2.515428883744856
97.01200890541077,2.518505015432099
97.21334838867188,2.5163136574074074
97.41437363624573,2.517457561728395
97.61382842063904,2.5171283436213994
97.78748512268066,2.5175205761316874
97.98904228210449,2.5161799125514404
98.18806385993958,2.5177687757201648
98.36944127082825,2.517375257201646
98.56384229660034,2.5184670781893006
98.76337027549744,2.5170601851851853
98.96491742134094,2.517148276748971
99.16687726974487,2.519064429012346
99.36647200584412,2.518281893004115
99.56802773475647,2.5171977880658436
99.76848101615906,2.5160500257201646
99.97163963317871,2.517505144032922
100.17223119735718,2.517335390946502
100.38311171531677,2.5167283950617283
100.57393670082092,2.516763760288066
100.77490425109863,2.516770833333333
100.97574758529663,2.518832304526749
101.17680025100708,2.516261574074074
101.38042688369751,2.5171206275720164
101.58002233505249,2.5162454989711933
101.78057360649109,2.515718878600823
101.98273730278015,2.516284079218107
102.18880558013916,2.515999228395062
102.38890814781189,2.5157085905349796
102.58397936820984,2.5148984053497943
102.78536128997803,2.5158879886831276
102.98799848556519,2.5166261574074076
103.18816494941711,2.517613811728395
103.38769793510437,2.516891718106996
103.59051275253296,2.5174447016460904
103.79050135612488,2.5170209619341564
103.99228644371033,2.518757716049383
104.19271945953369,2.5162602880658436
104.40085101127625,2.518128858024691
104.59521985054016,2.516398533950617
104.79764938354492,2.5170659722222224
104.9976921081543,2.516522633744856
105.1980357170105,2.5181095679012344
105.39925289154053,2.5182510288065845
105.599280834198,2.51599408436214
105.80324339866638,2.5165862911522634
106.00335001945496,2.519911908436214
106.20501327514648,2.5164049639917696
106.41397309303284,2.514727366255144
106.6051893234253,2.5159966563786007
106.80680012702942,2.5184471450617285
107.00876593589783,2.5161484053497944
107.21020603179932,2.5175771604938273
107.41063475608826,2.516482124485597
107.61237621307373,2.517282021604938
107.8170714378357,2.51643454218107
108.01461100578308,2.517780992798354
108.21520161628723,2.518065200617284
108.42475247383118,2.515872556584362
108.6165463924408,2.5145158179012346
108.81773972511292,2.5164326131687242
109.01940965652466,2.5165972222222224
109.22139811515808,2.5165920781893005
109.42275309562683,2.5155388374485597
109.62437033653259,2.5170923353909465
109.82386875152588,2.5146971450617284
110.0250871181488,2.517022247942387
110.22557950019836,2.5149607767489712
110.43526291847229,2.5156172839506175
110.62727332115173,2.516068672839506
110.82864546775818,2.5141062242798355
111.03040027618408,2.516385673868313
111.23132610321045,2.5161040380658437
111.4329125881195,2.514774948559671
111.63401508331299,2.513060056584362
111.83347296714783,2.5140432098765433
112.03584146499634,2.5143820730452675
112.23669290542603,2.513587962962963
112.44456386566162,2.5150270061728395
112.63852787017822,2.513920396090535
112.84040117263794,2.5126485339506175
113.04186987876892,2.5153221450617282
113.24119210243225,2.510875128600823
113.44329810142517,2.5129668209876543
113.64418244361877,2.511458333333333
113.84557366371155,2.5116840277777777
114.04632449150085,2.513553883744856
114.24833703041077,2.514400720164609
114.45738768577576,2.5145138888888887
114.64887404441833,2.5130041152263374
114.8497257232666,2.5156719393004114
115.05196166038513,2.5169817386831275
115.25267004966736,2.516667952674897
115.45370864868164,2.515295138888889
115.6554799079895,2.5153652263374484
115.85668325424194,2.515536908436214
116.05775570869446,2.5133281893004114
116.25837063789368,2.5143878600823046
116.46789455413818,2.5142914094650206
116.6620717048645,2.5115933641975308
116.86354804039001,2.512710905349794
117.064626455307,2.510951646090535
117.26439237594604,2.5123643261316873
117.46482968330383,2.5135352366255144
117.66558241844177,2.5130838477366253
117.86607193946838,2.5125810185185187
118.06832361221313,2.5134465020576133
118.26970052719116,2.513667052469136
118.48213601112366,2.5131719393004115
118.67182421684265,2.5154565329218106
118.87307095527649,2.5139531893004117
119.07379293441772,2.515817901234568
119.27497458457947,2.514122942386831
119.47538185119629,2.516014017489712
119.67739200592041,2.5155317644032924
119.87721943855286,2.5128954475308642
120.07881879806519,2.5167489711934157
120.28140878677368,2.516140046296296
120.48248887062073,2.5161998456790124
120.69431853294373,2.5153221450617282
120.88343977928162,2.5149241255144035
121.08354997634888,2.516382458847737
121.28427529335022,2.515318287037037
121.48670887947083,2.5148206018518517
121.68768429756165,2.5153530092592593
121.88884401321411,2.5170126028806585
122.09142684936523,2.517488425925926
122.29191422462463,2.515530478395062
122.49220585823059,2.516127829218107
122.70084047317505,2.516488554526749
122.89478302001953,2.516954732510288
123.09458327293396,2.518401491769547
123.29653477668762,2.51585262345679
123.49695992469788,2.5165129886831274
123.69939541816711,2.5156918724279835
123.90124249458313,2.5165155606995886
124.10037112236023,2.5143621399176954
124.3010504245758,2.5166518775720164
124.50150537490845,2.5160390946502056
124.71320581436157,2.516000514403292
124.90825295448303,2.51632008744856
125.10577964782715,2.5164814814814815
125.30641889572144,2.5171096965020574
125.50735783576965,2.5156385030864197
125.70913171768188,2.5170357510288066
125.90897393226624,2.51752829218107
126.11047554016113,2.5159220679012346
126.31285643577576,2.5169483024691357
126.51394772529602,2.518746784979424
126.72117209434509,2.5172595164609053
126.91770458221436,2.5172434413580245
127.11715936660767,2.5165811471193416
127.3166868686676,2.517777777777778
127.51801133155823,2.5146514917695475
127.7189531326294,2.5157227366255146
127.9205391407013,2.515880272633745
128.12494540214539,2.5190972222222223
128.32388472557068,2.5138245884773665
128.52514910697937,2.51453125
128.74016547203064,2.516154192386831
128.92877411842346,2.5159979423868313
129.13006734848022,2.5151459619341563
129.3278512954712,2.517229938271605
129.53021121025085,2.5170672582304525
129.73063850402832,2.5163618827160494
129.93267846107483,2.517622813786008
130.13449811935425,2.515480324074074
130.33441138267517,2.5176485339506174
130.53570413589478,2.5175552983539093
130.7447772026062,2.5174331275720165
130.93738341331482,2.5169071502057614
131.14071393013,2.5171868569958846
131.34091305732727,2.518449074074074
131.54098558425903,2.518777649176955
131.74132466316223,2.5167238940329217
131.9435532093048,2.5182735339506173
132.14491271972656,2.5164699074074073
132.34439659118652,2.5189930555555557
132.54680132865906,2.5178677983539095
132.75666618347168,2.5185841049382716
132.94995951652527,2.5171463477366256
133.1495463848114,2.516537422839506
133.3510663509369,2.516287937242798
133.55220532417297,2.5158622685185184
133.7520034313202,2.517549511316872
133.95292615890503,2.516889146090535
134.15484857559204,2.5163560956790123
134.3556411266327,2.515892489711934
134.56791853904724,2.516081532921811
134.76012921333313,2.515459747942387
134.95886874198914,2.5164904835390947
135.15961122512817,2.5156635802469136
135.3621473312378,2.5168486368312757
135.56365990638733,2.517957818930041
135.7626233100891,2.516809413580247
135.96547603607178,2.5144900977366254
136.16744089126587,2.5148649691358025
136.3763976097107,2.515732381687243
136.56883692741394,2.514281121399177
136.76904201507568,2.5136374742798355
136.97218990325928,2.5160018004115225
137.17076110839844,2.516482767489712
137.37343978881836,2.5145010288065843
137.5753779411316,2.518020190329218
137.77449870109558,2.5159702932098766
137.97534799575806,2.516120113168724
138.1779224872589,2.516587577160494
138.38624668121338,2.516707175925926
138.57899641990662,2.516832561728395
138.77901077270508,2.515710519547325
138.98128581047058,2.515408950617284
139.18270468711853,2.5156069958847738
139.38835310935974,2.516383744855967
139.5857150554657,2.516426826131687
139.7854380607605,2.51701646090535
139.98643732070923,2.5161149691358027
140.19839191436768,2.5168981481481483
140.38950562477112,2.517605452674897
140.58946585655212,2.517881301440329
140.79234719276428,2.5180851337448558
140.99218225479126,2.516938014403292
141.19332337379456,2.517732767489712
141.3957793712616,2.516305941358025
141.59610247612,2.5183397633744855
141.79951643943787,2.5173739711934155
142.0080530643463,2.5186574074074075
142.1982295513153,2.517132844650206
142.39934706687927,2.5173881172839505
142.6032497882843,2.5170929783950617
142.80330848693848,2.517179140946502
143.00283861160278,2.5173000257201648
143.2038369178772,2.5173251028806582
143.4075665473938,2.5177681327160495
143.6071183681488,2.5177128343621398
143.8174693584442,2.517647247942387
144.00892090797424,2.5168055555555555
144.20983505249023,2.5158005401234567
144.40988945960999,2.5182992541152265
144.61324334144592,2.5173058127572014
144.81426429748535,2.5177880658436216
145.01462483406067,2.516329089506173
145.21555304527283,2.5149189814814816
145.41652369499207,2.518940972222222
145.62719464302063,2.5171829989711934
145.8193621635437,2.516544495884774
146.01997327804565,2.517389403292181
146.22130823135376,2.5172222222222222
146.42174315452576,2.518894675925926
146.62172055244446,2.517380401234568
146.82423067092896,2.515701517489712
147.02726030349731,2.5171225565843622
147.22672605514526,2.516712319958848
147.43348717689514,2.516917438271605
147.62760758399963,2.5177719907407408
147.82869601249695,2.5156938014403294
148.03091526031494,2.517036394032922
148.23174691200256,2.5186927726337447
148.43342232704163,2.518750643004115
148.63376832008362,2.5146804269547327
148.83706283569336,2.5154777520576133
149.03690195083618,2.5176948302469135
149.24662899971008,2.516909079218107
149.43681120872498,2.5164763374485597
149.63844752311707,2.518346193415638
149.84227514266968,2.516260931069959
150.0427372455597,2.5175790895061727
150.24135494232178,2.516005658436214
150.44486927986145,2.5164512602880658
150.64465880393982,2.5186522633744857
150.84530901908875,2.5167451131687244
151.0467927455902,2.515988297325103
151.25630807876587,2.517678112139918
151.44779443740845,2.516968235596708
151.65064144134521,2.5185551697530864
151.8506202697754,2.51738554526749
152.05305171012878,2.5159786522633745
152.25382232666016,2.5176292438271606
152.45363020896912,2.517467849794239
152.65713572502136,2.517469135802469
152.85723853111267,2.51650591563786
153.0685155391693,2.517894804526749
153.25877785682678,2.5184098508230455
153.46039295196533,2.516341306584362
153.66190123558044,2.5173173868312757
153.8640353679657,2.515783822016461
154.0632622241974,2.5164023919753085
154.26836347579956,2.5166576646090535
154.4649395942688,2.517298096707819
154.66630840301514,2.518269675925926
154.87745642662048,2.5151575360082306
155.06831812858582,2.516124614197531
155.27059412002563,2.517602880658436
155.4715073108673,2.516261574074074
155.6710021495819,2.5189081790123455
155.87210130691528,2.517346965020576
156.0737166404724,2.516125257201646
156.27482295036316,2.517601594650206
156.47626566886902,2.5172852366255145
156.68667674064636,2.5160095164609055
156.87879037857056,2.5165895061728394
157.07984328269958,2.5155754886831274
157.28078699111938,2.5182941100823046
157.48228454589844,2.518178369341564
157.68232202529907,2.5161979166666666
157.88521194458008,2.5167914094650206
158.08684945106506,2.5159735082304526
158.2870328426361,2.5170634002057612
158.49016308784485,2.515630787037037
158.68816781044006,2.5156436471193415
158.888769865036,2.517139917695473
159.09002256393433,2.5169232253086418
159.2909471988678,2.516095679012346
159.49421882629395,2.516006301440329
159.69462704658508,2.5161972736625513
159.89564108848572,2.5160217335390946
160.09771537780762,2.5156526491769546
160.29734349250793,2.5153793724279834
160.50751519203186,2.5157040895061726
160.6999261379242,2.5157118055555556
160.89926958084106,2.51686021090535
161.1028323173523,2.5162352109053496
161.30410814285278,2.5165065586419755
161.50970935821533,2.516096965020576
161.70681166648865,2.5156867283950617
161.9059820175171,2.5148842592592593
162.10652422904968,2.5133339763374485
162.3164873123169,2.514866255144033
162.51129484176636,2.5132272376543208
162.71234130859375,2.5109445730452675
162.9120671749115,2.5131757973251028
163.11322951316833,2.5129308127572014
163.31658363342285,2.513604681069959
163.51541209220886,2.512554012345679
163.71663641929626,2.5111259002057613
163.9157543182373,2.513516589506173
164.1249668598175,2.5142894804526748
164.32018637657166,2.5138278034979424
164.52072381973267,2.5131539351851853
164.72239518165588,2.513409850823045
164.9227418899536,2.5166068672839508
165.12629175186157,2.514124871399177
165.32226085662842,2.5151382458847737
165.52611136436462,2.518408564814815
165.72629618644714,2.516230709876543
165.93825554847717,2.5159272119341565
166.1292245388031,2.515988297325103
166.32917380332947,2.5122228652263376
166.53161001205444,2.514812885802469
166.73358130455017,2.5129636059670784
166.93205046653748,2.513858024691358
167.13340401649475,2.5126498199588476
167.3357105255127,2.5127031893004115
167.5355486869812,2.513485725308642
167.7451560497284,2.514013631687243
167.93988013267517,2.5145556841563788
168.140394449234,2.513872170781893
168.34032821655273,2.512627314814815
168.5418882369995,2.514942772633745
168.74243593215942,2.51122170781893
168.94562005996704,2.5142965534979425
169.1454918384552,2.5128819444444446
169.34775280952454,2.5152199074074075
169.5556709766388,2.5137776491769546
169.75020456314087,2.515514403292181
169.94988417625427,2.5141345164609055
170.15114450454712,2.5177179783950616
170.35116958618164,2.515005144032922
170.5558943748474,2.515003215020576
170.7552638053894,2.51555362654321
170.95671558380127,2.516806198559671
171.15626120567322,2.513903034979424
171.36654233932495,2.5156179269547323
171.55841398239136,2.515550411522634
171.75966906547546,2.5149356995884773
171.9593756198883,2.516284722222222
172.16258668899536,2.5167772633744856
172.3639395236969,2.5148881172839506
172.56402492523193,2.517536651234568
172.76510548591614,2.5174736368312756
172.96500396728516,2.515900848765432
173.16929483413696,2.5199492026748973
173.3683774471283,2.519263760288066
173.56936740875244,2.517698688271605
173.7702820301056,2.515792181069959
173.9723436832428,2.516801054526749
174.17254066467285,2.5173308899176954
174.37347888946533,2.5172479423868315
174.57481408119202,2.516360596707819
174.77638816833496,2.516784979423868
174.98605108261108,2.5160043724279837
175.180166721344,2.5169894547325105
175.38153171539307,2.516622942386831
175.58099031448364,2.5162519290123457
175.7808952331543,2.516957947530864
175.98222756385803,2.5181526491769546
176.18297624588013,2.5171090534979426
176.38548064231873,2.517105838477366
176.58727073669434,2.5182953960905348
176.8003854751587,2.5175237911522634
176.98955821990967,2.5173058127572014
177.1908311843872,2.518609825102881
177.39042592048645,2.5153144290123457
177.59021043777466,2.516084747942387
177.79172730445862,2.5174504886831275
177.9923779964447,2.5183031121399178
178.19363856315613,2.515764531893004
178.39541006088257,2.5178999485596707
178.59853172302246,2.518372556584362
178.81098341941833,2.5185551697530864
178.9977424144745,2.517093621399177
179.19952058792114,2.518485082304527
179.40069699287415,2.5151607510288065
179.60207438468933,2.5168872170781893
179.80310034751892,2.5162512860082304
180.00530648231506,2.5189506172839504
180.20627403259277,2.5191743827160495
180.4081563949585,2.517191358024691
180.6161618232727,2.51740033436214
180.80864310264587,2.518841306584362
181.01085424423218,2.519504886831276
181.2137017250061,2.519031635802469
181.41138219833374,2.5171868569958846
181.61207556724548,2.5165322788065843
181.8143184185028,2.5170466820987656
182.01545810699463,2.516433899176955
182.21648263931274,2.517778420781893
182.41700100898743,2.5168396347736626
182.6273958683014,2.518460648148148
182.8210949897766,2.515943930041152
183.02056646347046,2.5189531893004116
183.22432231903076,2.517210648148148
183.42432856559753,2.5174543467078188
183.62596583366394,2.5167605452674895
183.82654738426208,2.518034336419753
184.02659940719604,2.5180118312757203
184.2257580757141,2.5154674639917696
184.43510961532593,2.5166615226337448
184.62903571128845,2.514384645061728
184.83173322677612,2.5160673868312755
185.03304243087769,2.516326517489712
185.2325484752655,2.5158166152263375
185.43321657180786,2.5171688528806584
185.63579082489014,2.5159966563786007
185.83602213859558,2.5151086676954733
186.03672575950623,2.5156597222222223
186.24888014793396,2.517582304526749
186.44030022621155,2.5183905606995887
186.64206433296204,2.5182683899176954
186.8424837589264,2.515016718106996
187.04148507118225,2.5181597222222223
187.2426655292511,2.517613811728395
187.44431924819946,2.515230195473251
187.6465790271759,2.5166750257201644
187.84780645370483,2.5143627829218107
188.05981254577637,2.516947016460905
188.25003290176392,2.5178536522633745
188.4506959915161,2.516008230452675
188.65225529670715,2.518036908436214
188.8523645401001,2.5196457047325103
189.05499649047852,2.516770190329218
189.25576424598694,2.5177109053497944
189.4569709300995,2.5171457047325103
189.66049337387085,2.5161625514403294
189.869788646698,2.5184239969135804
190.0604703426361,2.517264017489712
190.2600016593933,2.515961934156379
190.46173667907715,2.5182085905349796
190.66158437728882,2.5170942644032923
190.8647427558899,2.516806841563786
191.07013940811157,2.518062628600823
191.2723777294159,2.5175752314814814
191.47481560707092,2.517099408436214
191.68318247795105,2.5177694187242796
191.87126207351685,2.5158506944444445
192.07500839233398,2.5174434156378602
192.27180886268616,2.5177597736625517
192.4719798564911,2.5170106738683127
192.67386627197266,2.517608667695473
192.87734937667847,2.5173308899176954
193.07732486724854,2.518414994855967
193.27712869644165,2.5175038580246913
193.4776542186737,2.5191094393004114
193.6939308643341,2.517818287037037
193.88167524337769,2.5169566615226335
194.08380651474,2.5161766975308644
194.28279423713684,2.51789737654321
194.48500061035156,2.5179462448559673
194.685133934021,2.5175006430041154
194.88591480255127,2.518784722222222
195.08612179756165,2.517709619341564
195.28937482833862,2.517070473251029
195.48940563201904,2.5161837705761316
195.69963598251343,2.5175527263374486
195.89135694503784,2.517360468106996
196.10548400878906,2.5153298611111112
196.3055567741394,2.515278420781893
196.4993793964386,2.5173199588477364
196.70119285583496,2.5176093106995885
196.90091466903687,2.518278677983539
197.0978400707245,2.518148148148148
197.30111932754517,2.5162249228395064
197.51174783706665,2.517721836419753
197.70396327972412,2.5183281893004117
197.90374398231506,2.516957947530864
198.1055212020874,2.5175430812757202
198.3055453300476,2.516147762345679
198.5078570842743,2.5161040380658437
198.71027779579163,2.516923868312757
198.91285133361816,2.5173816872427985
199.11431550979614,2.5186908436213993
199.31242060661316,2.5163676697530866
199.5127248764038,2.518278034979424
199.71234464645386,2.514616769547325
199.91416478157043,2.5176208847736627
200.1162555217743,2.51576774691358
200.31950879096985,2.514851466049383
200.52085781097412,2.5179726080246914
200.7213795185089,2.516559284979424
200.92337799072266,2.5181487911522633
201.13152503967285,2.518128858024691
201.32016825675964,2.516440972222222
201.52297639846802,2.516630015432099
201.72272109985352,2.517335390946502
201.92406845092773,2.5169637345679012
202.12657380104065,2.5168910751028806
202.3289635181427,2.5174987139917695
202.53594636917114,2.5174414866255144
202.73987436294556,2.5153941615226336
202.93906140327454,2.5159664351851854
203.12833881378174,2.51661908436214
203.33067059516907,2.518563528806584
203.53534603118896,2.515551697530864
203.73541378974915,2.516433899176955
203.93683075904846,2.5171585648148147
204.1508219242096,2.5176009516460907
204.35463333129883,2.5158738425925926
204.57092833518982,2.5174453446502056
204.7783043384552,2.5160712448559672
204.96747398376465,2.5177456275720163
205.16916227340698,2.5176395318930043
205.36850881576538,2.517205504115226
205.57155323028564,2.5153227880658435
205.771550655365,2.518832947530864
205.97310853004456,2.516338091563786
206.1782088279724,2.5170621141975307
206.38119530677795,2.5175102880658438
206.5865912437439,2.5168878600823046
206.7788381576538,2.5175462962962962
206.97984337806702,2.5174704218106996
207.17914628982544,2.517266589506173
207.37803506851196,2.517570730452675
207.57978677749634,2.516105967078189
207.7812418937683,2.517534079218107
207.9827845096588,2.5189814814814815
208.18286323547363,2.5151832561728393
208.3938853740692,2.5176633230452676
208.58687353134155,2.5141666666666667
208.7870156764984,2.515767103909465
208.9886064529419,2.5168936471193417
209.19048309326172,2.515806970164609
209.39140009880066,2.5165046296296296
209.59424543380737,2.517150205761317
209.79400038719177,2.5159818672839505
209.99458169937134,2.5153620113168724
210.19489312171936,2.515192258230453
210.40555834770203,2.515988297325103
210.59702277183533,2.5160976080246913
210.79992985725403,2.516102752057613
211.0003583431244,2.5159561471193417
211.2011218070984,2.5137512860082305
211.40106892585754,2.514826388888889
211.60251474380493,2.515417952674897
211.80336165428162,2.5154591049382717
212.00580263137817,2.514104938271605
212.22295379638672,2.513974408436214
212.45313549041748,2.513172582304527
212.6707308292389,2.5136246141975307
212.8699507713318,2.513692772633745
213.06992983818054,2.5137069187242798
213.27013421058655,2.5103813014403293
213.47584462165833,2.513048482510288
213.6736991405487,2.5125392232510286
213.87567615509033,2.512928883744856
214.0860583782196,2.513121784979424
214.27471375465393,2.5125109310699587
214.4765751361847,2.5137088477366256
214.67766785621643,2.515477109053498
214.8778247833252,2.5162204218106994
215.08002305030823,2.515298353909465
215.27819728851318,2.515446244855967
215.478200674057,2.517626028806584
215.68251967430115,2.5162911522633746
215.89019346237183,2.515727880658436
216.08378911018372,2.512878729423868
216.28568243980408,2.514479166666667
216.48573446273804,2.5118820730452676
216.68798232078552,2.5141769547325103
216.8877935409546,2.5121688528806585
217.08943557739258,2.5112139917695475
217.29209661483765,2.5140187757201646
217.49201917648315,2.5133873456790123
217.6942298412323,2.512907021604938
217.9050362110138,2.5144084362139916
218.09576535224915,2.5146495627572016
218.29550790786743,2.5129674639917696
218.4971799850464,2.5126176697530864
218.6980538368225,2.513130787037037
218.90011620521545,2.513766718106996
219.10283255577087,2.5150270061728395
219.30097317695618,2.5149305555555554
219.50242638587952,2.5139647633744855
219.71260452270508,2.5156526491769546
219.90589547157288,2.5135950360082306
220.1059534549713,2.515298353909465
220.3069612979889,2.514492026748971
220.50943899154663,2.516042309670782
220.70924830436707,2.514954989711934
220.91132426261902,2.5150077160493827
221.11089038848877,2.515434670781893
221.31234550476074,2.5169335133744855
221.52140545845032,2.5155922067901235
221.7133297920227,2.5164506172839505
221.91508388519287,2.515579346707819
222.11790823936462,2.5156327160493825
222.31783413887024,2.5185352366255143
222.52333545684814,2.5159252829218106
222.72026443481445,2.518157150205761
222.92454028129578,2.5177199074074075
223.12920427322388,2.516966949588477
223.3264353275299,2.517499356995885
223.5335009098053,2.5164493312757203
223.72507071495056,2.5178800154320986
223.92612743377686,2.5145550411522635
224.12897038459778,2.518914609053498
224.32934021949768,2.5172035751028807
224.52877020835876,2.5189223251028805
224.7304322719574,2.516640946502058
224.93124508857727,2.5170479681069957
225.13299083709717,2.517948816872428
225.34289407730103,2.5163027263374484
225.5346610546112,2.517653034979424
225.73730182647705,2.518232381687243
225.93753337860107,2.517886445473251
226.14077854156494,2.5174916409465022
226.34087467193604,2.5183905606995887
226.54138112068176,2.5176073816872426
226.74112367630005,2.5161484053497944
226.94253158569336,2.5170743312757202
227.14523458480835,2.5161291152263376
227.35333108901978,2.5172119341563786
227.54623746871948,2.51721579218107
227.74747014045715,2.5167399691358026
227.9475691318512,2.518278034979424
228.1503074169159,2.517943672839506
228.37331414222717,2.515888631687243
228.5861964225769,2.517204218106996
228.78771018981934,2.5176999742798354
228.9838707447052,2.517499356995885
229.19417142868042,2.516986239711934
229.3844199180603,2.5157426697530862
229.58724427223206,2.5162737911522632
229.78869652748108,2.517125128600823
229.99108457565308,2.517512217078189
230.19055008888245,2.517506430041152
230.38932514190674,2.5179616769547324
230.5925431251526,2.517852366255144
230.79226684570312,2.51639274691358
231.00124168395996,2.5171939300411523
231.1959044933319,2.5182593878600823
231.3955671787262,2.5159040637860084
231.5976595878601,2.51822337962963
231.7965338230133,2.518090920781893
231.99987530708313,2.51649112654321
232.19979047775269,2.5169341563786007
232.40167021751404,2.517196502057613
232.60480999946594,2.5174131944444444
232.8110613822937,2.5174215534979423
233.00527620315552,2.5182915380658435
233.20673775672913,2.516693672839506
233.40671157836914,2.5156802983539093
233.6136598587036,2.5178909465020576
233.81014394760132,2.516002443415638
234.01098608970642,2.5154494598765433
234.21282649040222,2.5155407664609055
234.41225385665894,2.5181320730452676
234.6211395263672,2.517931455761317
234.81290340423584,2.5168081275720167
235.0162227153778,2.52052533436214
235.21420884132385,2.5154925411522635
235.4153904914856,2.516585005144033
235.61702799797058,2.518825874485597
235.8181164264679,2.517601594650206
236.0198040008545,2.51576774691358
236.219135761261,2.5153729423868314
236.43187260627747,2.5179854681069958
236.62312197685242,2.5174472736625515
236.8254189491272,2.515992155349794
237.02457094192505,2.5181944444444446
237.22757840156555,2.517895447530864
237.42886209487915,2.5168852880658434
237.63033890724182,2.51732896090535
237.82954454421997,2.517146990740741
238.03314089775085,2.5186856995884774
238.2415976524353,2.5174080504115226
238.43176913261414,2.5177256944444446
238.632483959198,2.5184953703703705
238.8337152004242,2.5169926697530864
239.03571844100952,2.5158468364197533
239.23783135414124,2.5175385802469137
239.4384458065033,2.5170460390946503
239.64100337028503,2.517462705761317
239.8406538963318,2.5166628086419753
240.04928588867188,2.51711612654321
240.2423975467682,2.5179552469135804
240.4451928138733,2.51592271090535
240.64560389518738,2.517388760288066
240.84576749801636,2.5183031121399178
241.04674124717712,2.5167907664609053
241.24732065200806,2.518146862139918
241.44870781898499,2.516954732510288
241.6545126438141,2.517530221193416
241.86541366577148,2.5162262088477365
242.05381083488464,2.5185352366255143
242.25415539741516,2.5171084104938273
242.45328617095947,2.5183809156378603
242.65534591674805,2.518070344650206
242.85658025741577,2.517982896090535
243.05754399299622,2.5174324845679013
243.25962853431702,2.5168479938271604
243.45918941497803,2.5172633744855966
243.66869854927063,2.517522505144033
243.86348843574524,2.5188458076131686
244.06672620773315,2.5183564814814816
244.26384615898132,2.5160120884773662
244.46511363983154,2.5178697273662554
244.6648018360138,2.5175810185185186
244.86696362495422,2.5167258230452676
245.1025149822235,2.5183577674897117
245.29639792442322,2.516832561728395
245.51037979125977,2.518253600823045
245.70196795463562,2.5159535751028805
245.90267038345337,2.516874356995885
246.104971408844,2.517426054526749
246.3041832447052,2.5177629886831276
246.505117893219,2.5185873199588475
246.7104971408844,2.5173257458847735
246.9085373878479,2.516578575102881
247.1098108291626,2.51845100308642
247.31891059875488,2.517357896090535
247.5157573223114,2.517371399176955
247.71185564994812,2.5178446502057614
247.91355681419373,2.5173829732510287
248.11450099945068,2.516940586419753
248.3155426979065,2.515281635802469
248.5163869857788,2.518043338477366
248.71786642074585,2.51832433127572
248.9174518585205,2.518515303497942
249.128089427948,2.5168878600823046
249.32062911987305,2.5177887088477364
249.52457642555237,2.518622685185185
249.72365880012512,2.51806841563786
249.9256362915039,2.516604938271605
250.12489795684814,2.5182915380658435
250.32591223716736,2.517505144032922
250.52805972099304,2.517164351851852
250.72836446762085,2.5183224022633746
250.93713998794556,2.517283950617284
251.13290166854858,2.5183314043209877
251.33139085769653,2.517550797325103
251.53232049942017,2.515477109053498
251.73357510566711,2.516576646090535
251.93482947349548,2.5183654835390947
252.13558840751648,2.5177822788065845
252.34178519248962,2.5166274434156377
252.54640793800354,2.5184375
252.76312255859375,2.517388760288066
252.96891403198242,2.518412422839506
253.1722869873047,2.5162255658436212
253.37019276618958,2.5185615997942388
253.57335948944092,2.516408822016461
253.77579998970032,2.5187872942386833
253.9738736152649,2.518514017489712
254.17546677589417,2.5166268004115224
254.378005027771,2.5160210905349794
254.58767533302307,2.517735339506173
254.77953815460205,2.5168910751028806
254.98040652275085,2.5175462962962962
255.18435859680176,2.51742991255144
255.38193821907043,2.516670524691358
255.58180212974548,2.5169605195473252
255.78421258926392,2.51779771090535
255.98665642738342,2.5170891203703705
256.1868212223053,2.5180317644032923
256.39745807647705,2.5189332561728395
256.5890517234802,2.5163972479423866
256.7885801792145,2.517166923868313
256.98999857902527,2.516195344650206
257.1920371055603,2.5168608539094652
257.3938481807709,2.5159612911522635
257.5944149494171,2.5179230967078188
257.7959175109863,2.51674704218107
258.02322125434875,2.5162602880658436
258.2349452972412,2.517166923868313
258.4271378517151,2.5170492541152263
258.62719225883484,2.519562114197531
258.8306429386139,2.515915637860082
259.029988527298,2.5153446502057615
259.2326440811157,2.518144933127572
259.43266201019287,2.516596579218107
259.6385419368744,2.514584619341564
259.84048414230347,2.515320859053498
260.04271173477173,2.5172826646090534
260.23631167411804,2.517195216049383
260.4380111694336,2.5194823816872427
260.68499636650085,2.516025591563786
260.91515922546387,2.5168608539094652
261.1343951225281,2.515096450617284
261.33948516845703,2.515444958847737
261.54005694389343,2.5136123971193416
261.74064230918884,2.5153118569958846
261.9436249732971,2.5130774176954733
262.14588618278503,2.513643261316872
262.36619687080383,2.5146990740740742
262.5667643547058,2.5151716820987655
262.76625418663025,2.513730066872428
262.96868658065796,2.510243698559671
263.1654922962189,2.5121225565843623
263.3671145439148,2.512201646090535
263.5731382369995,2.512127057613169
263.78167247772217,2.513709490740741
264.00228357315063,2.51223058127572
264.20356702804565,2.511528420781893
264.40297532081604,2.5148347479423867
264.60434126853943,2.5147942386831277
264.80929255485535,2.5161033950617284
265.0147659778595,2.5147826646090534
265.21886467933655,2.5167116769547326
265.43997263908386,2.5181172839506174
265.6418089866638,2.517084619341564
265.85226798057556,2.5152314814814813
266.06749844551086,2.513730066872428
266.27228450775146,2.5163451646090533
266.47237634658813,2.515335005144033
266.671359539032,2.513346836419753
266.8721868991852,2.511977237654321
267.0750105381012,2.5121244855967078
267.2758457660675,2.512550797325103
267.47670245170593,2.5118106995884775
267.68389439582825,2.5120293209876543
267.87874603271484,2.51264146090535
268.080353975296,2.5142110339506174
268.28082942962646,2.5125527263374487
268.4838237762451,2.5129706790123456
268.68380546569824,2.5141634516460907
268.8844757080078,2.513985339506173
269.085618019104,2.515364583333333
269.2860839366913,2.5152629886831277
269.5002429485321,2.5143962191358025
269.71712493896484,2.514735725308642
269.91693353652954,2.515221836419753
270.1192066669464,2.5162512860082304
270.31738901138306,2.51474408436214
270.51982712745667,2.5141415895061727
270.7218933105469,2.515011574074074
270.92300510406494,2.5161586934156377
271.12422490119934,2.5147472993827162
271.3338086605072,2.515131172839506
271.5265693664551,2.5153819444444445
271.72664737701416,2.515034079218107
271.9294419288635,2.5157561728395064
272.12975788116455,2.514619984567901
272.3302218914032,2.5173488940329216
272.53331422805786,2.5150180041152264
272.73399686813354,2.5144990997942385
272.9346854686737,2.5160493827160493
273.14383244514465,2.517806069958848
273.3357300758362,2.516207561728395
273.5365643501282,2.518372556584362
273.73892045021057,2.5174273405349794
273.9434962272644,2.5171405606995885
274.1404666900635,2.5166184413580246
274.34270572662354,2.5177719907407408
274.5423038005829,2.5168113425925926
274.74526023864746,2.5171778549382715
274.9535870552063,2.516636445473251
275.1460235118866,2.515747813786008
275.3475139141083,2.5168145576131686
275.5553996562958,2.5165528549382716
275.7493977546692,2.5165978652263377
275.95579195022583,2.5174556327160493
276.1736550331116,2.5181082818930043
276.4001362323761,2.516062242798354
276.61995697021484,2.5176324588477366
276.8488507270813,2.516741255144033
277.0600986480713,2.517112911522634
277.2899034023285,2.5169110082304527
277.50103425979614,2.515877700617284
277.70129585266113,2.51725758744856
277.9051356315613,2.5172087191358026
278.1034297943115,2.5170228909465022
278.3051779270172,2.5174215534979423
278.5061876773834,2.517498070987654
278.7158546447754,2.5177604166666665
278.90919041633606,2.51683320473251
279.1108343601227,2.5167631172839506
279.3098864555359,2.5163368055555555
279.5118341445923,2.517764917695473
279.7131013870239,2.517539223251029
279.9144034385681,2.517275591563786
280.1163487434387,2.5176890432098764
280.317990064621,2.5176896862139917
280.51642751693726,2.5172511574074075
280.7283046245575,2.519814814814815
280.91895484924316,2.517946887860082
281.12033915519714,2.517547582304527
281.3223237991333,2.517758487654321
281.52257204055786,2.516639017489712
281.72888445854187,2.5181629372427983
281.9262728691101,2.5163278034979424
282.1287348270416,2.5180388374485596
282.3284239768982,2.519526105967078
282.5293130874634,2.516330375514403
282.73669695854187,2.5175353652263373
282.9304950237274,2.5191435185185185
283.13169622421265,2.517917309670782
283.3332984447479,2.5166943158436212
283.53517961502075,2.5170743312757202
283.73491978645325,2.5169618055555554
283.93568205833435,2.5170814043209875
284.13666439056396,2.5150360082304526
284.3378310203552,2.515664223251029
284.55023741722107,2.5171579218106994
284.7685925960541,2.5169180812757204
284.9691832065582,2.5172100051440327
285.1701285839081,2.51615033436214
285.37173414230347,2.517440843621399
285.5750267505646,2.517369470164609
285.7758078575134,2.516880787037037
285.97584342956543,2.5190895061728393
286.1820616722107,2.5156204989711934
286.3872549533844,2.5185095164609055
286.5812129974365,2.516064814814815
286.7808439731598,2.5171971450617283
286.98145484924316,2.518534593621399
287.1827757358551,2.5181063528806584
287.38630414009094,2.517224151234568
287.58618116378784,2.5181256430041152
287.78898429870605,2.51734375
287.98718070983887,2.516557355967078
288.2007203102112,2.5176787551440327
288.4384105205536,2.515795396090535
288.64358162879944,2.5181520061728393
288.86352276802063,2.5170608281893005
289.0714535713196,2.5153870884773664
289.2810368537903,2.517875514403292
289.4836046695709,2.516855066872428
