Time (s),Fluorescence Intensity (a.u.),Frequency (KHz)
0.0010046958923339844,2.6236432613168725,2801000
0.4247612953186035,2.626384387860082,2801100
0.6068365573883057,2.6241467335390944,2801200
0.7755897045135498,2.6249819958847738,2801300
0.9389123916625977,2.6251896862139916,2801400
1.1097016334533691,2.6252803497942385,2801500
1.2695565223693848,2.625712448559671,2801600
1.4375085830688477,2.6266583076131687,2801700
1.6070969104766846,2.6258937757201646,2801800
1.773047685623169,2.624974279835391,2801900
1.9362952709197998,2.626053240740741,2802000
2.126079797744751,2.6255375514403294,2802100
2.269777774810791,2.6232291666666665,2802200
2.4368698596954346,2.6237120627572015,2802300
2.6055755615234375,2.6245923353909464,2802400
2.7716145515441895,2.622826646090535,2802500
2.9399893283843994,2.624719007201646,2802600
3.106729030609131,2.6255606995884775,2802700
3.2762818336486816,2.62527070473251,2802800
3.442228078842163,2.626301440329218,2802900
3.606860637664795,2.6244251543209876,2803000
3.77577805519104,2.626962448559671,2803100
3.936494827270508,2.6253227880658434,2803200
4.101852178573608,2.6259522890946503,2803300
4.276149034500122,2.6261349022633746,2803400
4.478327751159668,2.6249164094650204,2803500
4.690647602081299,2.62576774691358,2803600
4.914334535598755,2.625288708847737,2803700
5.137347459793091,2.6262114197530866,2803800
5.354567050933838,2.625465534979424,2803900
5.577334880828857,2.6244393004115225,2804000
5.800689220428467,2.624969135802469,2804100
6.020507335662842,2.6251003086419753,2804200
6.244524002075195,2.6242804783950615,2804300
6.465518474578857,2.6261914866255145,2804400
6.686957359313965,2.625124742798354,2804500
6.908879518508911,2.6247511574074074,2804600
7.133228778839111,2.6259387860082306,2804700
7.352504730224609,2.6256918724279834,2804800
7.575700521469116,2.6240014146090536,2804900
7.80188250541687,2.626295010288066,2805000
8.020575523376465,2.623201517489712,2805100
8.242075681686401,2.62619212962963,2805200
8.464815855026245,2.6238368055555554,2805300
8.685301780700684,2.6264371141975307,2805400
8.910291194915771,2.6267399691358024,2805500
9.128859519958496,2.624699074074074,2805600
9.352411031723022,2.6242650462962964,2805700
9.573041915893555,2.6259477880658437,2805800
9.798873662948608,2.624164737654321,2805900
10.018333435058594,2.6249305555555558,2806000
10.241414070129395,2.624180169753086,2806100
10.46418285369873,2.6257992541152264,2806200
10.684981346130371,2.625522762345679,2806300
10.908081293106079,2.6249447016460907,2806400
11.1332528591156,2.626539351851852,2806500
11.352706670761108,2.626028806584362,2806600
11.574038982391357,2.6243704989711936,2806700
11.79790472984314,2.6258886316872427,2806800
12.019034624099731,2.624794881687243,2806900
12.2417893409729,2.6266087962962965,2807000
12.464803457260132,2.6248482510288067,2807100
12.685626029968262,2.627083333333333,2807200
12.910616874694824,2.625520190329218,2807300
13.131184577941895,2.6271887860082304,2807400
13.370926141738892,2.625760673868313,2807500
13.5755033493042,2.6243685699588477,2807600
13.797241926193237,2.626028806584362,2807700
14.019668102264404,2.623673482510288,2807800
14.241740703582764,2.6253414351851854,2807900
14.464935779571533,2.6248032407407407,2808000
14.687271118164062,2.6248315329218106,2808100
14.908294916152954,2.6244328703703705,2808200
15.131199836730957,2.6244245113168723,2808300
15.352624654769897,2.62610853909465,2808400
15.573869228363037,2.6248392489711936,2808500
15.800642967224121,2.6236342592592594,2808600
16.019756078720093,2.6239049639917695,2808700
16.241042375564575,2.625789609053498,2808800
16.46507477760315,2.6243132716049384,2808900
16.686535596847534,2.6254050925925925,2809000
16.909305334091187,2.6257593878600822,2809100
17.132305145263672,2.6264994855967077,2809200
17.35051703453064,2.625105452674897,2809300
17.57199716567993,2.6248045267489712,2809400
17.794443607330322,2.6218479938271604,2809500
18.018218755722046,2.6245801183127573,2809600
18.24068593978882,2.626269933127572,2809700
18.46126365661621,2.6245807613168726,2809800
18.684439182281494,2.6249845679012345,2809900
18.905597925186157,2.6233140432098767,2810000
19.128910779953003,2.6270627572016463,2810100
19.35122060775757,2.6246032664609054,2810200
19.57334303855896,2.62423353909465,2810300
19.794952630996704,2.6277739197530865,2810400
20.02183437347412,2.6257709619341565,2810500
20.23916482925415,2.6243569958847734,2810600
20.46281886100769,2.627534079218107,2810700
20.684713125228882,2.6249871399176956,2810800
20.905930519104004,2.6273109567901236,2810900
21.12828779220581,2.625974794238683,2811000
21.35183310508728,2.62472929526749,2811100
21.572035312652588,2.6244322273662553,2811200
21.794442892074585,2.622786779835391,2811300
22.018869876861572,2.625295781893004,2811400
22.23921847343445,2.62399112654321,2811500
22.4626407623291,2.624784593621399,2811600
22.685205936431885,2.623329475308642,2811700
22.906578302383423,2.6251684670781894,2811800
23.1299147605896,2.6259272119341563,2811900
23.351402759552002,2.624078575102881,2812000
23.573622941970825,2.6261734825102883,2812100
23.79448103904724,2.624864326131687,2812200
24.019632816314697,2.6274672067901235,2812300
24.239177465438843,2.625835262345679,2812400
24.4626784324646,2.6255613425925928,2812500
24.685148239135742,2.625030864197531,2812600
24.90583848953247,2.6253285751028805,2812700
25.132488489151,2.624715149176955,2812800
25.35149574279785,2.6232735339506172,2812900
25.573763847351074,2.626158693415638,2813000
25.794182538986206,2.626404320987654,2813100
26.018873929977417,2.6268512088477367,2813200
26.2396457195282,2.6249337705761318,2813300
26.46126961708069,2.627772633744856,2813400
26.685336112976074,2.6261464763374485,2813500
26.905685424804688,2.625824974279835,2813600
27.128318786621094,2.6241865997942386,2813700
27.352506637573242,2.6237712191358025,2813800
27.590669631958008,2.6251948302469135,2813900
27.796850204467773,2.6273681841563787,2814000
28.018272399902344,2.6257561728395062,2814100
28.239281177520752,2.626795267489712,2814200
28.463876485824585,2.6247858796296297,2814300
28.68587827682495,2.623695344650206,2814400
28.905515909194946,2.6252372685185184,2814500
29.128873109817505,2.626568287037037,2814600
29.3524272441864,2.62659079218107,2814700
29.57280206680298,2.6247003600823047,2814800
29.795539617538452,2.625130529835391,2814900
30.01781439781189,2.625769675925926,2815000
30.23911428451538,2.62524241255144,2815100
30.461602210998535,2.626604938271605,2815200
30.687061071395874,2.6241576646090534,2815300
30.9057719707489,2.623036908436214,2815400
31.12894296646118,2.6253343621399177,2815500
31.353494882583618,2.6252038323045266,2815600
31.573338985443115,2.6242991255144035,2815700
31.797445058822632,2.6256385030864196,2815800
32.016751289367676,2.6247260802469135,2815900
32.23916006088257,2.625008359053498,2816000
32.461771965026855,2.6262654320987653,2816100
32.68525528907776,2.62613683127572,2816200
32.90544509887695,2.625873199588477,2816300
33.12820506095886,2.6241583076131687,2816400
33.35119915008545,2.6261072530864196,2816500
33.5758011341095,2.6252057613168724,2816600
33.79473567008972,2.6264480452674897,2816700
34.01793026924133,2.6279044495884776,2816800
34.23988199234009,2.6245132458847737,2816900
34.461251735687256,2.62669045781893,2817000
34.684926986694336,2.625724022633745,2817100
34.90672540664673,2.626110468106996,2817200
35.12879824638367,2.6258757716049383,2817300
35.35428285598755,2.627008744855967,2817400
35.57288575172424,2.6275835905349796,2817500
35.794068574905396,2.627063400205761,2817600
36.0161669254303,2.624107510288066,2817700
36.23803472518921,2.625344007201646,2817800
36.46047115325928,2.6242148919753086,2817900
36.6829514503479,2.6238856738683127,2818000
36.90494155883789,2.6253086419753084,2818100
37.12767481803894,2.6245325360082306,2818200
37.350621700286865,2.6263278034979423,2818300
37.5718138217926,2.6274922839506174,2818400
37.79385328292847,2.624065715020576,2818500
38.0164008140564,2.6262448559670784,2818600
38.24010729789734,2.6273939043209875,2818700
38.46074914932251,2.6274054783950618,2818800
38.68325328826904,2.625418595679012,2818900
38.90463399887085,2.6251125257201644,2819000
39.1256685256958,2.6249511316872427,2819100
39.351475954055786,2.625507973251029,2819200
39.57209634780884,2.6254128086419755,2819300
39.801530599594116,2.6296984310699587,2819400
40.01812481880188,2.6257034465020577,2819500
40.2396137714386,2.624969135802469,2819600
40.46304726600647,2.6264853395061727,2819700
40.683725118637085,2.625315715020576,2819800
40.90636444091797,2.6260365226337448,2819900
41.127065658569336,2.6271643518518517,2820000
41.349156856536865,2.6253221450617286,2820100
41.57205104827881,2.626520061728395,2820200
41.79512691497803,2.628170653292181,2820300
42.01539969444275,2.6240862911522633,2820400
42.24241805076599,2.626980452674897,2820500
42.46338629722595,2.6270537551440327,2820600
42.682339906692505,2.6264711934156377,2820700
42.90741515159607,2.6262114197530866,2820800
43.12735056877136,2.627852366255144,2820900
43.35197448730469,2.6260101594650207,2821000
43.572734117507935,2.625976723251029,2821100
43.79578924179077,2.6245981224279835,2821200
44.015629291534424,2.6255407664609054,2821300
44.23954963684082,2.626599151234568,2821400
44.46053719520569,2.6244868827160492,2821500
44.68188261985779,2.6247620884773664,2821600
44.904722690582275,2.626003086419753,2821700
45.12512946128845,2.6259137088477367,2821800
45.34875011444092,2.624088220164609,2821900
45.56980013847351,2.626240354938272,2822000
45.79152202606201,2.626883359053498,2822100
46.013015031814575,2.6275552983539097,2822200
46.23574614524841,2.624656635802469,2822300
46.46987509727478,2.626005015432099,2822400
46.68121528625488,2.625585776748971,2822500
46.90300393104553,2.6260648148148147,2822600
47.12429761886597,2.626480195473251,2822700
47.34654712677002,2.6255806327160496,2822800
47.56925988197327,2.6270042438271606,2822900
47.78973913192749,2.626068029835391,2823000
48.01231145858765,2.6269663065843623,2823100
48.23696947097778,2.6264248971193416,2823200
48.45755195617676,2.6276665380658435,2823300
48.67999005317688,2.6282600308641975,2823400
48.90204191207886,2.6264981995884775,2823500
49.12330460548401,2.6271096965020577,2823600
49.349647521972656,2.626138760288066,2823700
49.569308042526245,2.625903420781893,2823800
49.79089903831482,2.626087319958848,2823900
50.01259636878967,2.6261111111111113,2824000
50.23652625083923,2.6261143261316873,2824100
50.45657968521118,2.622210648148148,2824200
50.68231797218323,2.6243061985596707,2824300
50.902292251586914,2.625797968106996,2824400
51.12375831604004,2.625830118312757,2824500
51.34678363800049,2.6250507973251027,2824600
51.569090843200684,2.6266808127572014,2824700
51.791425943374634,2.6266865997942386,2824800
52.014126777648926,2.6278221450617285,2824900
52.235326528549194,2.6273932613168722,2825000
52.45876383781433,2.6236548353909463,2825100
52.67939567565918,2.6248231738683128,2825200
52.903888463974,2.625585133744856,2825300
53.12284708023071,2.6268402777777777,2825400
53.34606981277466,2.6264319701646093,2825500
53.56841683387756,2.6286599794238685,2825600
53.79333972930908,2.628380272633745,2825700
54.01198697090149,2.627951388888889,2825800
54.236226081848145,2.62636316872428,2825900
54.456059217453,2.6260918209876545,2826000
54.67996072769165,2.6270646862139917,2826100
54.9018030166626,2.6271977880658435,2826200
55.123493909835815,2.626071244855967,2826300
55.34962821006775,2.628770576131687,2826400
55.56967806816101,2.6277038323045265,2826500
55.78918433189392,2.6252481995884773,2826600
56.01148295402527,2.6262172067901233,2826700
56.235427379608154,2.6258532664609056,2826800
56.45592021942139,2.6285217335390945,2826900
56.67909336090088,2.627676183127572,2827000
56.90218257904053,2.625363297325103,2827100
57.12307047843933,2.6273958333333334,2827200
57.344425201416016,2.626005015432099,2827300
57.56610083580017,2.625375514403292,2827400
57.78959345817566,2.626422325102881,2827500
58.01107716560364,2.627960390946502,2827600
58.25674486160278,2.6270273919753087,2827700
58.458240032196045,2.626068672839506,2827800
58.67832064628601,2.6265065586419754,2827900
58.90246629714966,2.626141975308642,2828000
59.12098693847656,2.6251684670781894,2828100
59.34467053413391,2.6266859567901233,2828200
59.56757998466492,2.6269386574074076,2828300
59.78907513618469,2.6283442644032924,2828400
60.01388931274414,2.6273906893004115,2828500
60.237797021865845,2.6268885030864197,2828600
60.457329750061035,2.6274723508230453,2828700
60.67781925201416,2.628587319958848,2828800
60.90318417549133,2.6273566100823045,2828900
61.12220644950867,2.6279951131687245,2829000
61.3444709777832,2.6271231995884774,2829100
61.56698751449585,2.6267341820987653,2829200
61.78898048400879,2.6254140946502056,2829300
62.01268243789673,2.6262770061728395,2829400
62.23332214355469,2.627395190329218,2829500
62.457029819488525,2.6270781893004114,2829600
62.67727470397949,2.6268004115226335,2829700
62.90151309967041,2.628994341563786,2829800
63.12214016914368,2.6268280606995886,2829900
63.34380269050598,2.6260860339506173,2830000
63.56695747375488,2.6252057613168724,2830100
63.7899956703186,2.627505787037037,2830200
64.01193308830261,2.626386316872428,2830300
64.23233270645142,2.6271855709876544,2830400
64.45514249801636,2.626466049382716,2830500
64.67758107185364,2.6267592592592592,2830600
64.89942979812622,2.6257490997942385,2830700
65.12193441390991,2.6224877829218105,2830800
65.34424877166748,2.627286522633745,2830900
65.56800746917725,2.6279681069958847,2831000
65.78828263282776,2.6288676697530864,2831100
66.01046848297119,2.626867283950617,2831200
66.23275780677795,2.625163966049383,2831300
66.4555447101593,2.62673225308642,2831400
66.676593542099,2.626042952674897,2831500
66.90033602714539,2.6283648405349793,2831600
67.12159705162048,2.63054012345679,2831700
67.34121227264404,2.624605195473251,2831800
67.56221890449524,2.62637795781893,2831900
67.78461980819702,2.6267573302469134,2832000
68.00613617897034,2.624522247942387,2832100
68.22844934463501,2.625277777777778,2832200
68.4525089263916,2.627655606995885,2832300
68.67333102226257,2.6269791666666666,2832400
68.89512038230896,2.6265277777777776,2832500
69.11776447296143,2.6268762860082306,2832600
69.3410153388977,2.626179269547325,2832700
69.56126284599304,2.622343106995885,2832800
69.7842185497284,2.6234239969135804,2832900
70.02472472190857,2.6293994341563787,2833000
70.22840309143066,2.627505787037037,2833100
70.45105314254761,2.6271437757201648,2833200
70.67424607276917,2.624447659465021,2833300
70.89501452445984,2.6256520061728397,2833400
71.11820983886719,2.6260635288065846,2833500
71.33893084526062,2.628591177983539,2833600
71.56193470954895,2.6284670781893005,2833700
71.78574824333191,2.6274086934156378,2833800
72.00644302368164,2.6288059413580247,2833900
72.23023676872253,2.627398405349794,2834000
72.4516179561615,2.628530735596708,2834100
72.67422699928284,2.6252308384773664,2834200
72.89532327651978,2.625502829218107,2834300
73.11868190765381,2.6266068672839507,2834400
73.33875393867493,2.6260365226337448,2834500
73.56260323524475,2.6280272633744857,2834600
73.78772521018982,2.6257349537037036,2834700
74.0053231716156,2.6255349794238683,2834800
74.22781276702881,2.6259239969135804,2834900
74.45334887504578,2.6251691100823047,2835000
74.67202830314636,2.6260178755144032,2835100
74.89640498161316,2.626780478395062,2835200
75.11826801300049,2.626596579218107,2835300
75.33886575698853,2.6273366769547324,2835400
75.56009483337402,2.6268897890946503,2835500
75.78362917900085,2.6281751543209877,2835600
76.00854516029358,2.6254282407407405,2835700
76.23156142234802,2.6273656121399176,2835800
76.45215559005737,2.6261381172839506,2835900
76.67396926879883,2.6261593364197533,2836000
76.89703416824341,2.6247048611111112,2836100
77.1174464225769,2.624985853909465,2836200
77.34015345573425,2.626520061728395,2836300
77.56148386001587,2.6248115997942385,2836400
77.78303217887878,2.62629179526749,2836500
78.00615072250366,2.626097608024691,2836600
78.22673273086548,2.62666216563786,2836700
78.44954705238342,2.627761702674897,2836800
78.67290949821472,2.626826774691358,2836900
78.89346861839294,2.627625385802469,2837000
79.11851048469543,2.6244611625514405,2837100
79.33871841430664,2.628360982510288,2837200
79.5603723526001,2.6264081790123455,2837300
79.78117299079895,2.627776491769547,2837400
80.00563097000122,2.623858024691358,2837500
80.22734665870667,2.626514274691358,2837600
80.44754958152771,2.628761574074074,2837700
80.67227458953857,2.628256172839506,2837800
80.91046047210693,2.6283738425925924,2837900
81.11612272262573,2.6274356995884776,2838000
81.33820724487305,2.6286008230452675,2838100
81.55903244018555,2.627049254115226,2838200
81.78347492218018,2.6266345164609053,2838300
82.0062689781189,2.6263072273662553,2838400
82.22747421264648,2.6261625514403293,2838500
82.44937372207642,2.6256545781893004,2838600
82.67203998565674,2.6245910493827163,2838700
82.89257454872131,2.625326646090535,2838800
83.11685419082642,2.627222222222222,2838900
83.33781361579895,2.6254713220164607,2839000
83.55918550491333,2.625920781893004,2839100
83.78179740905762,2.6259040637860083,2839200
84.00495624542236,2.6242148919753086,2839300
84.22818732261658,2.625051440329218,2839400
84.44809865951538,2.624337705761317,2839500
84.6714551448822,2.624891975308642,2839600
84.89268684387207,2.626906507201646,2839700
85.11606645584106,2.6240670010288065,2839800
85.3385272026062,2.6254481738683126,2839900
85.55796265602112,2.6273199588477367,2840000
85.78197050094604,2.624863040123457,2840100
86.00673770904541,2.6249337705761318,2840200
86.22554111480713,2.6244302983539094,2840300
86.44779109954834,2.6255941358024693,2840400
86.67164731025696,2.6258050411522635,2840500
86.89278531074524,2.6258590534979422,2840600
87.11523771286011,2.626736111111111,2840700
87.33762526512146,2.626559284979424,2840800
87.55858135223389,2.6264557613168726,2840900
87.78293418884277,2.6263072273662553,2841000
88.00380229949951,2.626300797325103,2841100
88.22671794891357,2.6271238425925927,2841200
88.4489357471466,2.6251948302469135,2841300
88.67081713676453,2.625113811728395,2841400
88.89148139953613,2.627635673868313,2841500
89.11845254898071,2.6272112911522636,2841600
89.33815717697144,2.627033822016461,2841700
89.55778288841248,2.6254790380658437,2841800
89.78196048736572,2.627104552469136,2841900
90.00405383110046,2.6262654320987653,2842000
90.22321844100952,2.627096193415638,2842100
90.44530653953552,2.6257478137860084,2842200
90.66804075241089,2.6251613940329217,2842300
90.8893735408783,2.6256012088477365,2842400
91.111168384552,2.6258931327160493,2842500
91.33467555046082,2.626326517489712,2842600
91.55636215209961,2.6281430041152265,2842700
91.7789843082428,2.6273405349794237,2842800
92.0013780593872,2.6270216049382715,2842900
92.22339630126953,2.6275758744855966,2843000
92.45953726768494,2.627758487654321,2843100
92.66711902618408,2.628664480452675,2843200
92.89074349403381,2.6263676697530864,2843300
93.11513113975525,2.625873199588477,2843400
93.33271145820618,2.6275315072016463,2843500
93.55711102485657,2.6256520061728397,2843600
93.77680039405823,2.6267399691358024,2843700
94.00162982940674,2.6261406893004113,2843800
94.22164463996887,2.6278292181069958,2843900
94.44292044639587,2.626019161522634,2844000
94.66763639450073,2.624479809670782,2844100
94.89026546478271,2.625354938271605,2844200
95.11345601081848,2.627139274691358,2844300
95.33295369148254,2.6262718621399177,2844400
95.55590438842773,2.623546167695473,2844500
95.78080320358276,2.626721322016461,2844600
95.9984838962555,2.6259182098765432,2844700
96.22210192680359,2.6258384773662553,2844800
96.44248986244202,2.6268190586419755,2844900
96.66682314872742,2.623153935185185,2845000
96.88985681533813,2.6262114197530866,2845100
97.12668991088867,2.627045396090535,2845200
97.33214235305786,2.6235352366255142,2845300
97.55501532554626,2.626829989711934,2845400
97.77790069580078,2.625977366255144,2845500
97.9984381198883,2.6265464248971195,2845600
98.22277450561523,2.6286863425925926,2845700
98.44285750389099,2.625284850823045,2845800
98.66779732704163,2.626924511316872,2845900
98.88899827003479,2.62620820473251,2846000
99.11158609390259,2.62542566872428,2846100
99.33236908912659,2.6284638631687245,2846200
99.55432486534119,2.6255658436213993,2846300
99.77538132667542,2.6262268518518517,2846400
99.99849438667297,2.6281687242798353,2846500
100.22072577476501,2.626761188271605,2846600
100.44218969345093,2.6251408179012348,2846700
100.6642234325409,2.62747170781893,2846800
100.88834404945374,2.6271855709876544,2846900
101.10898399353027,2.625477109053498,2847000
101.33129358291626,2.6260435956790125,2847100
101.5539197921753,2.6271000514403293,2847200
101.77508234977722,2.6270769032921812,2847300
102.01575493812561,2.6248251028806586,2847400
102.22057580947876,2.625917566872428,2847500
102.44267916679382,2.6281584362139916,2847600
102.66565155982971,2.626261574074074,2847700
102.88824844360352,2.624794881687243,2847800
103.11004781723022,2.6246489197530862,2847900
103.33220291137695,2.6260661008230453,2848000
103.55476999282837,2.626860853909465,2848100
103.77664732933044,2.6268261316872428,2848200
103.99773073196411,2.627121913580247,2848300
104.22041010856628,2.624128729423868,2848400
104.44191861152649,2.6261516203703703,2848500
104.66764163970947,2.627982896090535,2848600
104.88668012619019,2.6284972993827163,2848700
105.1083664894104,2.6285725308641976,2848800
105.33073472976685,2.6270576131687244,2848900
105.55431795120239,2.6260442386831278,2849000
105.77532267570496,2.6270807613168725,2849100
105.99688863754272,2.6285950360082304,2849200
106.22358584403992,2.6274614197530863,2849300
106.44698119163513,2.6268139146090537,2849400
106.67020201683044,2.626201774691358,2849500
106.88655257225037,2.626475051440329,2849600
107.1079113483429,2.625644933127572,2849700
107.33284306526184,2.62492862654321,2849800
107.55305814743042,2.625677083333333,2849900
107.77439093589783,2.626915509259259,2850000
107.99705815315247,2.6271122685185184,2850100
108.2190933227539,2.6278909465020575,2850200
108.4406476020813,2.624850180041152,2850300
108.66428470611572,2.6257658179012346,2850400
108.88998937606812,2.6287255658436215,2850500
109.11100482940674,2.627721836419753,2850600
109.32952404022217,2.625057227366255,2850700
109.55209016799927,2.6272826646090537,2850800
109.77419972419739,2.6262602880658434,2850900
109.99818873405457,2.626190200617284,2851000
110.22130918502808,2.6261342592592594,2851100
110.44155263900757,2.6246572788065845,2851200
110.66268253326416,2.6270987654320987,2851300
110.88666081428528,2.625477109053498,2851400
111.10867166519165,2.625632716049383,2851500
111.35077905654907,2.6268081275720165,2851600
111.5518388748169,2.6258455504115226,2851700
111.77406573295593,2.626439686213992,2851800
111.99694418907166,2.625205118312757,2851900
112.2196273803711,2.625502186213992,2852000
112.44193625450134,2.626670524691358,2852100
112.66231107711792,2.6271270576131687,2852200
112.88677215576172,2.6274961419753087,2852300
113.10796165466309,2.6265174897119343,2852400
113.32847452163696,2.6244618055555557,2852500
113.55077743530273,2.626158693415638,2852600
113.77585196495056,2.624960776748971,2852700
113.99715065956116,2.6279192386831274,2852800
114.21845889091492,2.623658693415638,2852900
114.44066023826599,2.625105452674897,2853000
114.66104435920715,2.625574202674897,2853100
114.88342690467834,2.6243184156378603,2853200
115.10868215560913,2.6270216049382715,2853300
115.33006191253662,2.6248000257201647,2853400
115.55055451393127,2.6271058384773665,2853500
115.7752525806427,2.625750385802469,2853600
115.99515962600708,2.6255189043209874,2853700
116.23457598686218,2.6248083847736625,2853800
116.4400315284729,2.6265329218106994,2853900
116.66083645820618,2.626983024691358,2854000
116.88290047645569,2.625434670781893,2854100
117.10630869865417,2.626574074074074,2854200
117.32785940170288,2.626789480452675,2854300
117.55058145523071,2.625176183127572,2854400
117.77246880531311,2.626099537037037,2854500
117.99590158462524,2.625983796296296,2854600
118.21732497215271,2.622789994855967,2854700
118.43913912773132,2.624820601851852,2854800
118.65989327430725,2.6228195730452675,2854900
118.88369107246399,2.626403677983539,2855000
119.10639500617981,2.626258359053498,2855100
119.32931518554688,2.6253092849794237,2855200
119.54993844032288,2.624434799382716,2855300
119.77297163009644,2.6255838477366256,2855400
119.99422216415405,2.6265348508230453,2855500
120.21649765968323,2.6246971450617282,2855600
120.43891930580139,2.62667566872428,2855700
120.66008734703064,2.6244418724279837,2855800
120.900963306427,2.6254411008230454,2855900
121.10781836509705,2.6249067644032924,2856000
121.32700777053833,2.624364068930041,2856100
121.55096578598022,2.6261856995884774,2856200
121.77208614349365,2.626325874485597,2856300
121.99370980262756,2.623553240740741,2856400
122.21733379364014,2.6256211419753086,2856500
122.44002866744995,2.624506172839506,2856600
122.65969038009644,2.6230439814814814,2856700
122.88553977012634,2.624310056584362,2856800
123.10547113418579,2.623789866255144,2856900
123.32666373252869,2.62463091563786,2857000
123.55050086975098,2.6264512602880656,2857100
123.77112317085266,2.624650848765432,2857200
123.99505877494812,2.625414737654321,2857300
124.216228723526,2.6257407407407407,2857400
124.44028401374817,2.6252539866255145,2857500
124.6604311466217,2.6225662294238683,2857600
124.8843924999237,2.6249009773662553,2857700
125.1055998802185,2.6231172839506174,2857800
125.33132553100586,2.626170267489712,2857900
125.55045700073242,2.625212191358025,2858000
125.78653955459595,2.6249729938271606,2858100
125.99356198310852,2.6259008487654323,2858200
126.2160165309906,2.6239834104938273,2858300
126.43893575668335,2.6251150977366255,2858400
126.65971231460571,2.623374485596708,2858500
126.88441205024719,2.624869470164609,2858600
127.10568594932556,2.6240419238683126,2858700
127.32630491256714,2.623419495884774,2858800
127.54794526100159,2.621957947530864,2858900
127.77203845977783,2.6229623199588477,2859000
127.99478101730347,2.6251099537037037,2859100
128.2144021987915,2.622617026748971,2859200
128.4383807182312,2.6234619341563787,2859300
128.65870022773743,2.6237088477366255,2859400
128.88278484344482,2.6226093106995885,2859500
129.10487937927246,2.623557098765432,2859600
129.32592749595642,2.623102494855967,2859700
129.54778361320496,2.621557355967078,2859800
129.7709412574768,2.6223919753086418,2859900
129.99246263504028,2.62380658436214,2860000
130.21582865715027,2.6228626543209876,2860100
130.45571446418762,2.622391332304527,2860200
130.65868759155273,2.6215104166666667,2860300
130.88238978385925,2.6227031893004114,2860400
131.10266780853271,2.6224524176954733,2860500
131.32662892341614,2.623101851851852,2860600
131.54697346687317,2.622025462962963,2860700
131.77035880088806,2.624187885802469,2860800
131.99260425567627,2.6235506687242798,2860900
132.21386790275574,2.6250990226337447,2861000
132.4379334449768,2.6228928755144034,2861100
132.65820717811584,2.622902520576132,2861200
132.8792290687561,2.623954475308642,2861300
133.10241174697876,2.6223971193415636,2861400
133.32621264457703,2.623143004115226,2861500
133.54749631881714,2.6222550154320987,2861600
133.7680859565735,2.6248816872427985,2861700
133.99300050735474,2.6243859310699587,2861800
134.21325373649597,2.6261342592592594,2861900
134.43667125701904,2.6246148405349796,2862000
134.6586172580719,2.625792824074074,2862100
134.8846950531006,2.625394804526749,2862200
135.1025834083557,2.6254783950617284,2862300
135.324636220932,2.625536265432099,2862400
135.54502749443054,2.628002829218107,2862500
135.7680425643921,2.6261554783950616,2862600
135.99228525161743,2.6246212705761316,2862700
136.213933467865,2.6255581275720163,2862800
136.4352843761444,2.624684927983539,2862900
136.65853929519653,2.6275128600823043,2863000
136.87954592704773,2.6261715534979424,2863100
137.10240197181702,2.627437628600823,2863200
137.32584810256958,2.625772890946502,2863300
137.55116081237793,2.6273334619341564,2863400
137.76816749572754,2.6255555555555556,2863500
137.99076533317566,2.627613811728395,2863600
138.21214723587036,2.6250527263374486,2863700
138.4353346824646,2.626073173868313,2863800
138.65740942955017,2.627928240740741,2863900
138.87780213356018,2.625815972222222,2864000
139.1032030582428,2.6260770318930042,2864100
139.344340801239,2.624884259259259,2864200
139.54705595970154,2.6251266718107,2864300
139.76853251457214,2.625808899176955,2864400
139.99095630645752,2.624945987654321,2864500
140.2121696472168,2.625230195473251,2864600
140.4370334148407,2.6227205504115227,2864700
140.65857529640198,2.6248656121399176,2864800
140.87813067436218,2.6229616769547324,2864900
141.10282635688782,2.6209895833333334,2865000
141.32288718223572,2.6221997170781894,2865100
141.54490447044373,2.6228999485596707,2865200
141.76663088798523,2.6219161522633745,2865300
141.99068069458008,2.6200160751028805,2865400
142.2110357284546,2.623126929012346,2865500
142.43448519706726,2.622883230452675,2865600
142.656259059906,2.6235378086419754,2865700
142.8779923915863,2.6218203446502057,2865800
143.10248804092407,2.622749485596708,2865900
143.32338285446167,2.6192644032921812,2866000
143.5438575744629,2.61830954218107,2866100
143.77486968040466,2.621963734567901,2866200
143.99052381515503,2.622408693415638,2866300
144.21188807487488,2.6204732510288067,2866400
144.43327236175537,2.62139146090535,2866500
144.6570131778717,2.6207291666666666,2866600
144.877858877182,2.6201035236625514,2866700
145.1004204750061,2.6205073302469137,2866800
145.32252764701843,2.6210146604938274,2866900
145.54509472846985,2.622420267489712,2867000
145.76767587661743,2.620154320987654,2867100
145.9900245666504,2.621875,2867200
146.21186089515686,2.6243679269547324,2867300
146.43542098999023,2.62247170781893,2867400
146.6565911769867,2.622076260288066,2867500
146.87709712982178,2.621378600823045,2867600
147.10050201416016,2.6254089506172837,2867700
147.32395911216736,2.623618827160494,2867800
147.54397821426392,2.6216685956790124,2867900
147.76729345321655,2.6244277263374487,2868000
147.9897644519806,2.6227430555555555,2868100
148.21171951293945,2.622301311728395,2868200
148.4502658843994,2.623499871399177,2868300
148.65730571746826,2.6259098508230454,2868400
148.87836527824402,2.6233346193415636,2868500
149.10079789161682,2.6223141718106997,2868600
149.32288312911987,2.624113940329218,2868700
149.5441288948059,2.621281507201646,2868800
149.76646494865417,2.621630015432099,2868900
149.98862838745117,2.62247170781893,2869000
150.21130061149597,2.623852237654321,2869100
150.43299651145935,2.623760931069959,2869200
150.6547291278839,2.6258667695473252,2869300
150.878093957901,2.6241885288065845,2869400
151.09990072250366,2.6243762860082303,2869500
151.32257771492004,2.6251440329218108,2869600
151.54378867149353,2.624593621399177,2869700
151.76804280281067,2.6242798353909467,2869800
151.98776984214783,2.6229140946502056,2869900
152.21042895317078,2.6238535236625515,2870000
152.43151426315308,2.62376350308642,2870100
152.65431022644043,2.623236239711934,2870200
152.89563703536987,2.62407728909465,2870300
153.10054516792297,2.626267361111111,2870400
153.32194757461548,2.6253247170781893,2870500
153.5444872379303,2.6243280606995887,2870600
153.76598477363586,2.622916666666667,2870700
153.98746156692505,2.625557484567901,2870800
154.20936942100525,2.626377314814815,2870900
154.43290042877197,2.6235178755144033,2871000
154.6549608707428,2.62609375,2871100
154.877357006073,2.6257310956790123,2871200
155.09866666793823,2.625545267489712,2871300
155.3283462524414,2.6235326646090535,2871400
155.54406118392944,2.6246752829218107,2871500
155.76489734649658,2.6268074845679013,2871600
155.98677349090576,2.62379179526749,2871700
156.21148705482483,2.6245447530864197,2871800
156.43100714683533,2.62552533436214,2871900
156.65511012077332,2.6245698302469136,2872000
156.87882018089294,2.622980324074074,2872100
157.09758496284485,2.6242541152263374,2872200
157.33932852745056,2.6249305555555558,2872300
157.54482126235962,2.6246624228395063,2872400
157.76695084571838,2.6265406378600824,2872500
157.98736023902893,2.624661779835391,2872600
158.21048641204834,2.625300925925926,2872700
158.43052101135254,2.6246778549382714,2872800
158.65611052513123,2.626488554526749,2872900
158.875962972641,2.627560442386831,2873000
159.0975842475891,2.624398148148148,2873100
159.3237760066986,2.6253195730452674,2873200
159.5443332195282,2.625988940329218,2873300
159.7656626701355,2.6264101080246913,2873400
159.9879002571106,2.627832433127572,2873500
160.2097716331482,2.6251376028806583,2873600
160.4314742088318,2.6240625,2873700
160.65301203727722,2.6269039351851853,2873800
160.87639045715332,2.6259664351851852,2873900
161.09681963920593,2.6252282664609052,2874000
161.31975078582764,2.626570216049383,2874100
161.5428228378296,2.626505272633745,2874200
161.7776563167572,2.6264480452674897,2874300
161.9864637851715,2.6262480709876543,2874400
162.2084436416626,2.6240207047325104,2874500
162.43036031723022,2.6252173353909467,2874600
162.65415358543396,2.625970936213992,2874700
162.8758556842804,2.6263162294238684,2874800
163.09611320495605,2.6283275462962963,2874900
163.32014989852905,2.625267489711934,2875000
163.54129338264465,2.6254250257201646,2875100
163.76421737670898,2.6261323302469135,2875200
163.98866868019104,2.6273591820987656,2875300
164.20946860313416,2.6247408693415637,2875400
164.4310052394867,2.6265785751028807,2875500
164.65304684638977,2.6267136059670784,2875600
164.87682962417603,2.6267110339506172,2875700
165.09553694725037,2.626019804526749,2875800
165.31809258460999,2.626817772633745,2875900
165.54104447364807,2.6277289094650205,2876000
165.76272773742676,2.6257233796296298,2876100
165.98623132705688,2.625554269547325,2876200
166.2275595664978,2.6268383487654323,2876300
166.43230986595154,2.625317644032922,2876400
166.65997624397278,2.627071116255144,2876500
166.87775111198425,2.626977237654321,2876600
167.09621620178223,2.6269894547325103,2876700
167.3214132785797,2.6239120370370372,2876800
167.54180908203125,2.6259336419753088,2876900
167.76320338249207,2.6262037037037036,2877000
167.98532223701477,2.6243762860082303,2877100
168.20825815200806,2.6291062242798353,2877200
168.43127632141113,2.625345936213992,2877300
168.65280413627625,2.6265670010288065,2877400
168.87481117248535,2.625659722222222,2877500
169.09643697738647,2.625829475308642,2877600
169.3182816505432,2.626767618312757,2877700
169.54143452644348,2.6255336934156377,2877800
169.7621293067932,2.627159850823045,2877900
169.9857201576233,2.627505787037037,2878000
170.20669317245483,2.6283738425925924,2878100
170.44573545455933,2.627425411522634,2878200
170.65309357643127,2.627077546296296,2878300
170.87932801246643,2.626500128600823,2878400
171.0976059436798,2.6278536522633744,2878500
171.31888008117676,2.6260725308641977,2878600
171.5445110797882,2.626557355967078,2878700
171.7622470855713,2.627801568930041,2878800
171.98433804512024,2.6280195473251027,2878900
172.2064390182495,2.6244277263374487,2879000
172.42983078956604,2.6265798611111113,2879100
172.65171599388123,2.6271064814814813,2879200
172.87553215026855,2.6266152263374485,2879300
173.096910238266,2.627306455761317,2879400
173.31717658042908,2.626025591563786,2879500
173.53971576690674,2.62373521090535,2879600
173.76325798034668,2.6262982253086418,2879700
173.98415994644165,2.626395318930041,2879800
174.20642471313477,2.6261111111111113,2879900
174.42903852462769,2.6250630144032923,2880000
174.67221856117249,2.6267206790123456,2880100
174.87443351745605,2.6274582047325103,2880200
175.09662318229675,2.623948688271605,2880300
175.31680393218994,2.6252874228395062,2880400
175.5396022796631,2.6266300154320987,2880500
175.762442111969,2.6249479166666667,2880600
175.9895257949829,2.6233365483539095,2880700
176.2051990032196,2.6242084619341566,2880800
176.4294946193695,2.6270299639917694,2880900
176.65048360824585,2.6244926697530864,2881000
176.8724663257599,2.626915509259259,2881100
177.09666514396667,2.625104809670782,2881200
177.31736993789673,2.6263554526748973,2881300
177.53900337219238,2.6261606224279834,2881400
177.76177191734314,2.624929269547325,2881500
177.98396968841553,2.627152777777778,2881600
178.205482006073,2.6244045781893006,2881700
178.42794036865234,2.626476980452675,2881800
178.65022349357605,2.62659079218107,2881900
178.89296436309814,2.6267200360082303,2882000
179.09601211547852,2.6251440329218108,2882100
179.31665921211243,2.621864068930041,2882200
179.53932118415833,2.6268685699588477,2882300
179.76130390167236,2.6266190843621398,2882400
179.98504328727722,2.6269618055555557,2882500
180.20490741729736,2.6276896862139916,2882600
180.42848896980286,2.626924511316872,2882700
180.64967107772827,2.6267206790123456,2882800
180.8755373954773,2.626698173868313,2882900
181.09347820281982,2.6257002314814817,2883000
181.31360960006714,2.625960005144033,2883100
181.5379147529602,2.628923611111111,2883200
181.75881099700928,2.6262892232510286,2883300
181.97976112365723,2.6267965534979423,2883400
182.20328378677368,2.6284760802469136,2883500
182.42713284492493,2.626012088477366,2883600
182.6474826335907,2.6268647119341564,2883700
182.86876940727234,2.628256172839506,2883800
183.11132264137268,2.627863297325103,2883900
183.31418251991272,2.6257529578189303,2884000
183.5360779762268,2.6256944444444446,2884100
183.75919008255005,2.6225270061728394,2884200
183.98061800003052,2.626381172839506,2884300
184.20312595367432,2.6284452160493825,2884400
184.4261839389801,2.6252282664609052,2884500
184.64712953567505,2.62660558127572,2884600
184.87118077278137,2.6281687242798353,2884700
185.0954020023346,2.627047968106996,2884800
185.3141667842865,2.626361239711934,2884900
185.53606534004211,2.6263734567901236,2885000
185.75941491127014,2.6273199588477367,2885100
185.98075819015503,2.628616255144033,2885200
186.20233726501465,2.6295344650205763,2885300
186.42646765708923,2.6273656121399176,2885400
186.64992451667786,2.624820601851852,2885500
186.8690447807312,2.6264480452674897,2885600
187.0928726196289,2.6261066100823047,2885700
187.33486151695251,2.627517361111111,2885800
187.53529405593872,2.62579475308642,2885900
187.759610414505,2.6252282664609052,2886000
187.9804470539093,2.6281031378600823,2886100
188.2020378112793,2.6274980709876545,2886200
188.4236443042755,2.6269675925925924,2886300
188.6481683254242,2.628892103909465,2886400
188.86844563484192,2.6267065329218107,2886500
189.0911681652069,2.625326646090535,2886600
189.31302070617676,2.6278060699588477,2886700
189.5374047756195,2.626521990740741,2886800
189.7579779624939,2.6264107510288066,2886900
189.98031640052795,2.625738811728395,2887000
190.2010099887848,2.625417309670782,2887100
190.42351818084717,2.6272389403292182,2887200
190.64836406707764,2.6262512860082303,2887300
190.86878848075867,2.626838991769547,2887400
191.0898940563202,2.6236207561728393,2887500
191.3131890296936,2.625295781893004,2887600
191.5365273952484,2.6282458847736625,2887700
191.76145315170288,2.6254873971193415,2887800
191.98132967948914,2.6270023148148147,2887900
192.20203280448914,2.6249016203703706,2888000
192.42467331886292,2.6286098251028807,2888100
192.64668726921082,2.6275443672839507,2888200
192.86814403533936,2.626102752057613,2888300
193.09166979789734,2.6258674125514405,2888400
193.31424140930176,2.6253395061728395,2888500
193.5347502231598,2.625818544238683,2888600
193.75600600242615,2.626886574074074,2888700
193.9811818599701,2.627685185185185,2888800
194.2041094303131,2.627298739711934,2888900
194.4241316318512,2.626471836419753,2889000
194.64649534225464,2.6269553755144033,2889100
194.86734318733215,2.625718878600823,2889200
195.09118366241455,2.626808770576132,2889300
195.3137493133545,2.627363040123457,2889400
195.5358521938324,2.626954732510288,2889500
195.77707481384277,2.6291763117283953,2889600
195.98137426376343,2.628991769547325,2889700
196.20308327674866,2.6271264146090534,2889800
196.42422890663147,2.626752186213992,2889900
196.64619779586792,2.625983153292181,2890000
196.86713290214539,2.6304025205761317,2890100
197.0905966758728,2.62707433127572,2890200
197.3134081363678,2.6281661522633746,2890300
197.53532648086548,2.6285635288065845,2890400
197.75679731369019,2.6266666666666665,2890500
197.9800238609314,2.6275925925925927,2890600
198.20231819152832,2.627680041152263,2890700
198.42297506332397,2.6273784722222224,2890800
198.64859890937805,2.6272620884773663,2890900
198.86719727516174,2.6245074588477366,2891000
199.09311246871948,2.6280729166666665,2891100
199.31346821784973,2.629232896090535,2891200
199.53428649902344,2.6271778549382714,2891300
199.7676384449005,2.627719264403292,2891400
199.97851467132568,2.62666216563786,2891500
