Time (s),Fluorescence Intensity (a.u.),Frequency (KHz)
0.0013287067413330078,2.6256905864197533,2800400
0.3676156997680664,2.625920138888889,2800500
0.5497386455535889,2.62616512345679,2800600
0.7190854549407959,2.6262795781893002,2800700
0.8840303421020508,2.6279070216049383,2800800
1.0499722957611084,2.6263708847736624,2800900
1.2126672267913818,2.628650977366255,2801000
1.3816862106323242,2.6266351594650206,2801100
1.5491178035736084,2.62833783436214,2801200
1.7145936489105225,2.6284452160493825,2801300
1.8786659240722656,2.628435570987654,2801400
2.046011209487915,2.6270126028806584,2801500
2.2127416133880615,2.62811149691358,2801600
2.3782002925872803,2.629375,2801700
2.5495333671569824,2.62799704218107,2801800
2.7135026454925537,2.6273926183127574,2801900
2.8822665214538574,2.630149819958848,2802000
3.048092842102051,2.62863683127572,2802100
3.193582057952881,2.6280889917695474,2802200
3.3943939208984375,2.6282259516460904,2802300
3.5853512287139893,2.6282857510288067,2802400
3.813948392868042,2.6282484567901236,2802500
4.03324031829834,2.628150720164609,2802600
4.275127410888672,2.6291030092592593,2802700
4.474794149398804,2.627440200617284,2802800
4.687637090682983,2.628061985596708,2802900
4.908928394317627,2.6267779063786008,2803000
5.12982177734375,2.6268885030864197,2803100
5.351034641265869,2.6276684670781894,2803200
5.572309970855713,2.6282015174897118,2803300
5.796337604522705,2.6272427983539095,2803400
6.018984317779541,2.6286490483539096,2803500
6.2400689125061035,2.626318158436214,2803600
6.463652610778809,2.627084619341564,2803700
6.688072681427002,2.627795781893004,2803800
6.908973932266235,2.6293602109053498,2803900
7.131845712661743,2.629567901234568,2804000
7.352203607559204,2.6262127057613167,2804100
7.573557376861572,2.627564300411523,2804200
7.796911716461182,2.6281063528806583,2804300
8.017680883407593,2.628048482510288,2804400
8.240632772445679,2.6294450874485595,2804500
8.461469411849976,2.628553883744856,2804600
8.68330192565918,2.626304012345679,2804700
8.905078172683716,2.6243621399176953,2804800
9.129114151000977,2.6272743055555554,2804900
9.349717855453491,2.6257883230452674,2805000
9.572879314422607,2.6280394804526748,2805100
9.796300888061523,2.6263676697530864,2805200
10.01717734336853,2.6271322016460905,2805300
10.23897123336792,2.6254822530864197,2805400
10.462643384933472,2.626417181069959,2805500
10.683258533477783,2.6268846450617285,2805600
10.90606689453125,2.6264930555555557,2805700
11.151622295379639,2.628020190329218,2805800
11.3503999710083,2.62826646090535,2805900
11.582294225692749,2.62792566872428,2806000
11.825509786605835,2.6297427983539094,2806100
12.018634796142578,2.6284600051440328,2806200
12.240590810775757,2.6273939043209875,2806300
12.4631507396698,2.6282137345679013,2806400
12.683405637741089,2.6256802983539096,2806500
12.908397912979126,2.626005658436214,2806600
13.128130435943604,2.6250115740740743,2806700
13.350888013839722,2.625388374485597,2806800
13.572682857513428,2.6254822530864197,2806900
13.796476364135742,2.6261259002057615,2807000
14.017606735229492,2.625769675925926,2807100
14.240748167037964,2.6272620884773663,2807200
14.462786197662354,2.6270756172839507,2807300
14.685492753982544,2.627803497942387,2807400
14.90981674194336,2.6287512860082303,2807500
15.130340576171875,2.627110339506173,2807600
15.351288795471191,2.626956661522634,2807700
15.573588132858276,2.6278433641975307,2807800
15.79637098312378,2.627949459876543,2807900
16.0178861618042,2.628207947530864,2808000
16.24063730239868,2.6238888888888887,2808100
16.46408724784851,2.627199074074074,2808200
16.684675455093384,2.627136059670782,2808300
16.910016775131226,2.6276491769547325,2808400
17.130915641784668,2.62636316872428,2808500
17.35091233253479,2.626928369341564,2808600
17.572829484939575,2.629458590534979,2808700
17.797454118728638,2.625905349794239,2808800
18.03485107421875,2.6265380658436213,2808900
18.241867303848267,2.6259863683127573,2809000
18.46253991127014,2.6249363425925925,2809100
18.68325662612915,2.6268524948559673,2809200
18.905069828033447,2.626664094650206,2809300
19.128548622131348,2.6274099794238683,2809400
19.349977493286133,2.6279076646090536,2809500
19.57618260383606,2.626766975308642,2809600
19.826139450073242,2.6275443672839507,2809700
20.021023750305176,2.6266525205761315,2809800
20.23905086517334,2.627804783950617,2809900
20.464240550994873,2.6273225308641974,2810000
20.682801246643066,2.6281770833333336,2810100
20.90593457221985,2.6259297839506175,2810200
21.12925362586975,2.6278060699588477,2810300
21.351938724517822,2.6282375257201647,2810400
21.57078742980957,2.626704603909465,2810500
21.794576168060303,2.6294161522633743,2810600
22.01637864112854,2.6250411522633743,2810700
22.240087270736694,2.628856095679012,2810800
22.462181329727173,2.628741640946502,2810900
22.68384099006653,2.6276311728395063,2811000
22.90891933441162,2.629945987654321,2811100
23.12652277946472,2.6281745113168724,2811200
23.34960126876831,2.628045267489712,2811300
23.570754051208496,2.6279648919753087,2811400
23.793609619140625,2.62957433127572,2811500
24.01778268814087,2.627559799382716,2811600
24.237672328948975,2.6288818158436214,2811700
24.459664583206177,2.627886445473251,2811800
24.683450937271118,2.6280664866255146,2811900
24.904886960983276,2.6284278549382716,2812000
25.127541065216064,2.6278028549382717,2812100
25.36609435081482,2.6290927211934156,2812200
25.57086968421936,2.6283654835390946,2812300
25.793994665145874,2.6277430555555554,2812400
26.01725935935974,2.628645833333333,2812500
26.238221168518066,2.627621527777778,2812600
26.459779739379883,2.6269412294238683,2812700
26.685940265655518,2.6275488683127572,2812800
26.903625011444092,2.629343492798354,2812900
27.126118898391724,2.627584233539095,2813000
27.350101232528687,2.6281693672839506,2813100
27.570223569869995,2.627908307613169,2813200
27.80319881439209,2.6270749742798354,2813300
28.033384323120117,2.627235725308642,2813400
28.240867137908936,2.6277147633744855,2813500
28.462233781814575,2.6275385802469136,2813600
28.684881925582886,2.6279912551440328,2813700
28.908148527145386,2.6282034465020576,2813800
29.127826929092407,2.6282484567901236,2813900
29.351386785507202,2.6296129115226337,2814000
29.571932315826416,2.6272202932098767,2814100
29.792821645736694,2.6276318158436216,2814200
30.016398429870605,2.629300411522634,2814300
30.237595319747925,2.6296379886831276,2814400
30.459399938583374,2.6293370627572017,2814500
30.684580326080322,2.62930362654321,2814600
30.903839826583862,2.6285043724279835,2814700
31.127652406692505,2.6288792438271606,2814800
31.351670265197754,2.6280066872427983,2814900
31.573291778564453,2.628951903292181,2815000
31.792752027511597,2.627767489711934,2815100
32.015920639038086,2.6291685956790123,2815200
32.2361786365509,2.6271206275720163,2815300
32.460713624954224,2.627831790123457,2815400
32.683377742767334,2.6264962705761317,2815500
32.90278124809265,2.6272312242798352,2815600
33.126543045043945,2.6275405092592594,2815700
33.34906840324402,2.62627829218107,2815800
33.56985521316528,2.6276948302469134,2815900
33.79251027107239,2.6281655092592593,2816000
34.0157036781311,2.6281912294238685,2816100
34.23716473579407,2.6295447530864196,2816200
34.46069550514221,2.6286001800411523,2816300
34.682374000549316,2.629778163580247,2816400
34.903708934783936,2.6289107510288066,2816500
35.126190185546875,2.6278337191358023,2816600
35.348610162734985,2.628903034979424,2816700
35.57032132148743,2.6273025977366253,2816800
35.79231572151184,2.6285358796296294,2816900
36.01450490951538,2.628843878600823,2817000
36.23621320724487,2.627923739711934,2817100
36.46072006225586,2.6289036779835393,2817200
36.68028950691223,2.628741640946502,2817300
36.90265727043152,2.627886445473251,2817400
37.124717235565186,2.626691100823045,2817500
37.36430478096008,2.6293897890946503,2817600
37.568859815597534,2.62754308127572,2817700
37.78966522216797,2.6279533179012344,2817800
38.013200759887695,2.628412422839506,2817900
38.236140966415405,2.6277655606995887,2818000
38.45830416679382,2.627303883744856,2818100
38.680715560913086,2.628726851851852,2818200
38.90207052230835,2.62811149691358,2818300
39.12432837486267,2.626250643004115,2818400
39.34668827056885,2.628519804526749,2818500
39.56889367103577,2.628676054526749,2818600
39.790878772735596,2.628566100823045,2818700
40.01359558105469,2.6280234053497944,2818800
40.234992027282715,2.6281237139917697,2818900
40.45731830596924,2.6275861625514403,2819000
40.68073272705078,2.6294129372427983,2819100
40.90381717681885,2.62778420781893,2819200
41.14214539527893,2.630207690329218,2819300
41.347368240356445,2.627453703703704,2819400
41.5697762966156,2.626105324074074,2819500
41.791725873947144,2.6274498456790125,2819600
42.01390624046326,2.628938400205761,2819700
42.23556447029114,2.62876350308642,2819800
42.4579873085022,2.626773405349794,2819900
42.68060851097107,2.6270646862139917,2820000
42.90254306793213,2.6257227366255145,2820100
43.12492489814758,2.627761059670782,2820200
43.34736442565918,2.6261213991769545,2820300
43.569623708724976,2.629130658436214,2820400
43.79446744918823,2.628326903292181,2820500
44.054914712905884,2.629458590534979,2820600
44.26018190383911,2.6283513374485596,2820700
44.45960807800293,2.629211033950617,2820800
44.69506072998047,2.6279308127572016,2820900
44.903016328811646,2.6289930555555556,2821000
45.14159297943115,2.6277327674897117,2821100
45.34558916091919,2.628105066872428,2821200
45.56523513793945,2.6261439043209878,2821300
45.7876296043396,2.62636316872428,2821400
46.00972127914429,2.629038065843621,2821500
46.23410415649414,2.6280176183127573,2821600
46.453388690948486,2.628505015432099,2821700
46.67694973945618,2.6284792952674896,2821800
46.90035438537598,2.6276967592592593,2821900
47.12085700035095,2.6281204989711933,2822000
47.34358215332031,2.628661908436214,2822100
47.566941261291504,2.6280832047325102,2822200
47.78759813308716,2.627680041152263,2822300
48.009567737579346,2.6284008487654322,2822400
48.23274302482605,2.628377700617284,2822500
48.45374369621277,2.6284953703703704,2822600
48.675276041030884,2.625527906378601,2822700
48.898685932159424,2.628760288065844,2822800
49.139318227767944,2.6282690329218106,2822900
49.343607664108276,2.6285442386831277,2823000
49.56554388999939,2.6278555812757203,2823100
49.786728382110596,2.6279481738683126,2823200
50.008728981018066,2.6292026748971193,2823300
50.23230457305908,2.630971579218107,2823400
50.45332670211792,2.627235082304527,2823500
50.67598223686218,2.6268775720164608,2823600
50.89863681793213,2.631422968106996,2823700
51.11900067329407,2.629429012345679,2823800
51.341575622558594,2.628815586419753,2823900
51.56718349456787,2.629539609053498,2824000
51.78764533996582,2.6281127829218107,2824100
52.036311864852905,2.6282349537037035,2824200
52.24880504608154,2.6294502314814814,2824300
52.4575674533844,2.6274164094650208,2824400
52.67653775215149,2.6283416923868312,2824500
52.91337990760803,2.629321630658436,2824600
53.120330572128296,2.6301240997942386,2824700
53.34320139884949,2.6303131430041153,2824800
53.56541967391968,2.6288567386831274,2824900
53.78915238380432,2.629922196502058,2825000
54.00942397117615,2.6287622170781892,2825100
54.2323534488678,2.627238297325103,2825200
54.45261073112488,2.629161522633745,2825300
54.67750644683838,2.626960519547325,2825400
54.903918743133545,2.6280298353909464,2825500
55.125357151031494,2.628976980452675,2825600
55.34245204925537,2.6290554269547326,2825700
55.567590951919556,2.629440586419753,2825800
55.7881224155426,2.6297093621399177,2825900
56.01154971122742,2.6309066358024693,2826000
56.234071016311646,2.6285718878600823,2826100
56.456955909729004,2.6288914609053498,2826200
56.697131633758545,2.629454732510288,2826300
56.89958691596985,2.6306127829218107,2826400
57.120254039764404,2.628396990740741,2826500
57.348881006240845,2.6298443930041153,2826600
57.564109325408936,2.628920396090535,2826700
57.787195920944214,2.629881044238683,2826800
58.01141119003296,2.6303703703703705,2826900
58.23087501525879,2.628879886831276,2827000
58.45369529724121,2.628587962962963,2827100
58.678152084350586,2.628378343621399,2827200
58.899482011795044,2.6274099794238683,2827300
59.121055126190186,2.629670781893004,2827400
59.348817110061646,2.629184027777778,2827500
59.56687331199646,2.6300012860082305,2827600
59.78788352012634,2.627256301440329,2827700
60.00898480415344,2.6275835905349796,2827800
60.23186492919922,2.6285706018518518,2827900
60.473684549331665,2.627263374485597,2828000
60.676581621170044,2.627906378600823,2828100
60.89884114265442,2.6284220679012344,2828200
61.12019991874695,2.629071502057613,2828300
61.342448234558105,2.6284008487654322,2828400
61.565589427948,2.626767618312757,2828500
61.788195848464966,2.6297376543209876,2828600
62.00898241996765,2.628562885802469,2828700
62.2323694229126,2.6281577932098767,2828800
62.45815467834473,2.6269618055555557,2828900
62.68481111526489,2.629008487654321,2829000
62.94859504699707,2.62917566872428,2829100
63.1950957775116,2.6292065329218106,2829200
63.40239143371582,2.628457433127572,2829300
63.62142014503479,2.6287911522633745,2829400
63.84267234802246,2.628979552469136,2829500
64.06840062141418,2.6290425668724278,2829600
64.28567576408386,2.6272344393004117,2829700
64.50635075569153,2.6284921553497944,2829800
64.73005414009094,2.6291319444444445,2829900
64.95330023765564,2.62990033436214,2830000
65.17467975616455,2.629448302469136,2830100
65.39671659469604,2.6299845679012344,2830200
65.62124061584473,2.629528677983539,2830300
65.84088253974915,2.6284503600823044,2830400
66.06255340576172,2.6272826646090537,2830500
66.28670239448547,2.626844135802469,2830600
66.5073070526123,2.6292997685185187,2830700
66.7312240600586,2.6272794495884773,2830800
66.95368075370789,2.629196887860082,2830900
67.17345118522644,2.6286490483539096,2831000
67.39652585983276,2.628335262345679,2831100
67.61974000930786,2.627483924897119,2831200
67.85722708702087,2.6290805041152265,2831300
68.06223177909851,2.6301826131687243,2831400
68.28577756881714,2.6309085648148147,2831500
68.50680637359619,2.6300501543209878,2831600
68.7300591468811,2.6303311471193416,2831700
68.9529242515564,2.6296887860082303,2831800
69.17298316955566,2.6297254372427985,2831900
69.39558744430542,2.6280105452674896,2832000
69.61895227432251,2.627439557613169,2832100
69.83905696868896,2.6286599794238685,2832200
70.06248188018799,2.629191100823045,2832300
70.28558397293091,2.630244341563786,2832400
70.50575757026672,2.631190843621399,2832500
70.7288761138916,2.6312847222222224,2832600
70.95450592041016,2.6284561471193415,2832700
71.17329430580139,2.6285918209876544,2832800
71.39548349380493,2.630308641975309,2832900
71.6187105178833,2.6276382458847736,2833000
71.84148931503296,2.6287172067901237,2833100
72.06175565719604,2.629758230452675,2833200
72.28835654258728,2.628059413580247,2833300
72.51187801361084,2.6293338477366257,2833400
72.73294234275818,2.630198688271605,2833500
72.96586275100708,2.628890174897119,2833600
73.17647576332092,2.6292689043209876,2833700
73.40421271324158,2.629767232510288,2833800
73.62062954902649,2.6288078703703706,2833900
73.83945512771606,2.631215920781893,2834000
74.06166076660156,2.628477366255144,2834100
74.2853262424469,2.6294701646090535,2834200
74.50634622573853,2.6294791666666666,2834300
74.7286605834961,2.6300887345679014,2834400
74.95054340362549,2.630321502057613,2834500
75.18994569778442,2.628860596707819,2834600
75.39466834068298,2.6296264146090533,2834700
75.61896920204163,2.6276896862139916,2834800
75.83911776542664,2.630800540123457,2834900
76.06156349182129,2.628193158436214,2835000
76.28346300125122,2.627573945473251,2835100
76.50589418411255,2.6279661779835393,2835200
76.72810006141663,2.6300462962962965,2835300
76.95084309577942,2.629070859053498,2835400
77.17215394973755,2.62987204218107,2835500
77.3944365978241,2.626770190329218,2835600
77.62354516983032,2.6296965020576133,2835700
77.83833503723145,2.6290316358024692,2835800
78.06111073493958,2.6286342592592593,2835900
78.28385353088379,2.630917566872428,2836000
78.50449728965759,2.629675925925926,2836100
78.7277934551239,2.629675925925926,2836200
78.95003271102905,2.628814943415638,2836300
79.18817234039307,2.6294277263374486,2836400
79.39336729049683,2.628528163580247,2836500
79.61647915840149,2.629537037037037,2836600
79.83930468559265,2.630574202674897,2836700
80.06075382232666,2.629312628600823,2836800
80.28225064277649,2.6318942901234568,2836900
80.5056312084198,2.6303382201646093,2837000
80.72769594192505,2.628638760288066,2837100
80.95030999183655,2.6303433641975307,2837200
81.17158842086792,2.6290425668724278,2837300
81.3941798210144,2.6296823559670783,2837400
81.61590814590454,2.629273405349794,2837500
81.83774757385254,2.629567901234568,2837600
82.05976343154907,2.6307960390946503,2837700
82.28292989730835,2.6279648919753087,2837800
82.50433111190796,2.628889531893004,2837900
82.7272047996521,2.6305864197530866,2838000
82.96721506118774,2.6262590020576133,2838100
83.17152905464172,2.6277404835390947,2838200
83.39409136772156,2.631016589506173,2838300
83.61645174026489,2.6280266203703704,2838400
83.83809971809387,2.627846579218107,2838500
84.06055188179016,2.6300070730452676,2838600
84.28544211387634,2.6278452932098766,2838700
84.50409984588623,2.6307060185185187,2838800
84.72901725769043,2.629931198559671,2838900
84.95370936393738,2.6285789609053496,2839000
85.17109394073486,2.630378086419753,2839100
85.39475178718567,2.6291859567901232,2839200
85.61656045913696,2.6281095679012347,2839300
85.83941984176636,2.629542824074074,2839400
86.06156778335571,2.6303292181069957,2839500
86.28377556800842,2.6287660751028805,2839600
86.51475191116333,2.6288200874485597,2839700
86.72660374641418,2.629886188271605,2839800
86.94919013977051,2.628776363168724,2839900
87.17139172554016,2.6281378600823047,2840000
87.39313244819641,2.629838605967078,2840100
87.61896800994873,2.6301922582304527,2840200
87.83856534957886,2.629661779835391,2840300
88.0607397556305,2.6286342592592593,2840400
88.28251075744629,2.630443672839506,2840500
88.50462293624878,2.6296206275720166,2840600
88.72747850418091,2.6300205761316873,2840700
88.95007824897766,2.6291936728395062,2840800
89.17133569717407,2.6298373199588476,2840900
89.39341807365417,2.6278819444444443,2841000
89.61585235595703,2.630525977366255,2841100
89.84156036376953,2.6287429269547324,2841200
90.05921578407288,2.6299922839506173,2841300
90.29788446426392,2.6303504372427984,2841400
90.5027596950531,2.628348765432099,2841500
90.72346353530884,2.6291030092592593,2841600
90.94707369804382,2.630064943415638,2841700
91.16870450973511,2.630963220164609,2841800
91.38993954658508,2.629401363168724,2841900
91.61341619491577,2.6292791923868313,2842000
91.83446669578552,2.62914866255144,2842100
92.05653858184814,2.62957433127572,2842200
92.27885842323303,2.6288226594650204,2842300
92.50223851203918,2.6285384516460906,2842400
92.7227349281311,2.629093364197531,2842500
92.95015335083008,2.630073945473251,2842600
93.1697564125061,2.6296006944444446,2842700
93.38874340057373,2.62866512345679,2842800
93.61186146736145,2.6286779835390948,2842900
93.85012793540955,2.629414866255144,2843000
94.05627989768982,2.6290207047325103,2843100
94.27801299095154,2.629957561728395,2843200
94.50009632110596,2.6280144032921813,2843300
94.72278499603271,2.6285268775720163,2843400
94.94572257995605,2.6306860853909466,2843500
95.16638016700745,2.6283963477366257,2843600
95.38963723182678,2.6297749485596706,2843700
95.61159300804138,2.6292746913580247,2843800
95.83427047729492,2.629463734567901,2843900
96.05516028404236,2.629707433127572,2844000
96.27688074111938,2.6293737139917694,2844100
96.50026392936707,2.6294810956790124,2844200
96.7234034538269,2.6295498971193414,2844300
96.94419574737549,2.630625643004115,2844400
97.16645646095276,2.6282118055555554,2844500
97.4010603427887,2.632642103909465,2844600
97.60655450820923,2.628511445473251,2844700
97.83252692222595,2.6300462962962965,2844800
98.05275511741638,2.6285551697530862,2844900
98.27310538291931,2.630189686213992,2845000
98.4967749118805,2.6298784722222224,2845100
98.72221779823303,2.6316120113168724,2845200
98.93985438346863,2.6312184927983537,2845300
99.16310405731201,2.6287364969135805,2845400
99.38798475265503,2.6287609310699587,2845500
99.60696983337402,2.6299196244855967,2845600
99.82862114906311,2.6286464763374484,2845700
100.0548164844513,2.631374742798354,2845800
100.27332711219788,2.629792309670782,2845900
100.49900650978088,2.628428497942387,2846000
100.71964168548584,2.629976851851852,2846100
100.94230532646179,2.6310950360082304,2846200
101.16142463684082,2.6285757458847736,2846300
101.3855950832367,2.6287004886831276,2846400
101.60645318031311,2.629528677983539,2846500
101.82903265953064,2.6311117541152265,2846600
102.05174136161804,2.628020190329218,2846700
102.27191376686096,2.6291235853909467,2846800
102.49527335166931,2.6292258230452674,2846900
102.717533826828,2.6284227109053497,2847000
102.93988990783691,2.6297318672839505,2847100
103.16241693496704,2.6299961419753086,2847200
103.38362741470337,2.6293621399176956,2847300
103.6054699420929,2.628590534979424,2847400
103.82706093788147,2.6297736625514405,2847500
104.05065250396729,2.6296109825102882,2847600
104.28767681121826,2.629454732510288,2847700
104.49450659751892,2.63061021090535,2847800
104.71898698806763,2.628195730452675,2847900
104.93961834907532,2.630465534979424,2848000
105.16140627861023,2.6270955504115228,2848100
105.3836944103241,2.629259259259259,2848200
105.60618710517883,2.6318975051440328,2848300
105.83193707466125,2.628845807613169,2848400
106.05064415931702,2.630338863168724,2848500
106.27391624450684,2.6289396862139918,2848600
106.49411964416504,2.628957690329218,2848700
106.71714377403259,2.6294753086419753,2848800
106.93979740142822,2.629362782921811,2848900
107.16209602355957,2.630630787037037,2849000
107.38344311714172,2.630093235596708,2849100
107.60550260543823,2.6300893775720167,2849200
107.82750821113586,2.6284709362139917,2849300
108.05274367332458,2.62886316872428,2849400
108.27266597747803,2.6293524948559672,2849500
108.49393272399902,2.6277083333333335,2849600
108.71689748764038,2.6273868312757203,2849700
108.93836164474487,2.62982896090535,2849800
109.16014552116394,2.628264531893004,2849900
109.38292479515076,2.6293029835390946,2850000
109.60488867759705,2.629769161522634,2850100
109.82721066474915,2.629021990740741,2850200
110.05129790306091,2.6290579989711933,2850300
110.27203011512756,2.6279552469135803,2850400
110.49387884140015,2.6296553497942385,2850500
110.71907901763916,2.6295981224279834,2850600
110.93901634216309,2.6293332047325104,2850700
111.16044020652771,2.630645576131687,2850800
111.39761424064636,2.628911394032922,2850900
111.61650061607361,2.629238683127572,2851000
111.82915687561035,2.628652906378601,2851100
112.05018639564514,2.6309207818930043,2851200
112.2723000049591,2.629162808641975,2851300
112.50565981864929,2.6303137860082306,2851400
112.74459433555603,2.630479681069959,2851500
112.94466853141785,2.628261316872428,2851600
113.17156291007996,2.6299537037037037,2851700
113.39005303382874,2.6288683127572017,2851800
113.61471033096313,2.631379886831276,2851900
113.83601927757263,2.629656635802469,2852000
114.0511908531189,2.630469393004115,2852100
114.2743136882782,2.6292232510288067,2852200
114.49670195579529,2.6287454989711936,2852300
114.717618227005,2.6305922067901233,2852400
114.95685315132141,2.6267881944444444,2852500
115.16731142997742,2.6303819444444443,2852600
115.38341617584229,2.629262474279835,2852700
115.6054334640503,2.629517103909465,2852800
115.82755899429321,2.628585390946502,2852900
116.05100989341736,2.628766718106996,2853000
116.27264499664307,2.6316287294238685,2853100
116.4927453994751,2.6305986368312757,2853200
116.71563816070557,2.6292316100823045,2853300
116.93946170806885,2.628244598765432,2853400
117.1599600315094,2.626838991769547,2853500
117.38396286964417,2.628428497942387,2853600
117.60661339759827,2.6281320730452675,2853700
117.82933974266052,2.6278092849794237,2853800
118.04904532432556,2.629189814814815,2853900
118.28676652908325,2.6285384516460906,2854000
118.49458765983582,2.629538966049383,2854100
118.7168242931366,2.6292997685185187,2854200
118.93969082832336,2.629897119341564,2854300
119.16077327728271,2.6279552469135803,2854400
119.3843924999237,2.627011959876543,2854500
119.60412049293518,2.6280208333333333,2854600
119.82590889930725,2.627914737654321,2854700
120.0495274066925,2.6285551697530862,2854800
120.27198624610901,2.6276060956790124,2854900
120.49184131622314,2.626224279835391,2855000
120.71520781517029,2.628400205761317,2855100
120.93807935714722,2.6282536008230455,2855200
121.1588807106018,2.62734375,2855300
121.38339567184448,2.6286548353909467,2855400
121.61935544013977,2.627133487654321,2855500
121.82545375823975,2.6272408693415636,2855600
122.04821062088013,2.627407407407407,2855700
122.27134156227112,2.628872170781893,2855800
122.49110317230225,2.6284445730452677,2855900
122.71605968475342,2.626639017489712,2856000
122.93839907646179,2.626925797325103,2856100
123.15980529785156,2.628113425925926,2856200
123.38191628456116,2.6270756172839507,2856300
123.60359120368958,2.6271212705761315,2856400
123.82491397857666,2.6279359567901235,2856500
124.04796123504639,2.6282748199588477,2856600
124.27116870880127,2.6279218106995885,2856700
124.49086451530457,2.628020190329218,2856800
124.71497201919556,2.627692901234568,2856900
124.93784093856812,2.6269129372427984,2857000
125.176278591156,2.6268595679012345,2857100
125.38108849525452,2.6269212962962962,2857200
125.60305833816528,2.6275752314814813,2857300
125.8255410194397,2.6263625257201646,2857400
126.04863834381104,2.6270801183127572,2857500
126.27144241333008,2.627528935185185,2857600
126.49026131629944,2.626951517489712,2857700
126.71461272239685,2.6259477880658437,2857800
126.93732285499573,2.625050154320988,2857900
127.15848350524902,2.6280208333333333,2858000
127.38243770599365,2.6258050411522635,2858100
127.60318374633789,2.6269875257201645,2858200
127.82440853118896,2.6265354938271606,2858300
128.04901599884033,2.6273765432098766,2858400
128.27047157287598,2.627204218106996,2858500
128.49021863937378,2.6243647119341564,2858600
128.72257924079895,2.6265637860082305,2858700
128.93817043304443,2.62448816872428,2858800
129.15828609466553,2.6258082561728395,2858900
129.3814024925232,2.6253227880658434,2859000
129.60481238365173,2.6265817901234567,2859100
129.8244867324829,2.625449459876543,2859200
130.04921579360962,2.625449459876543,2859300
130.2701075077057,2.6254140946502056,2859400
130.48981881141663,2.624616769547325,2859500
130.71300387382507,2.625602494855967,2859600
130.9365062713623,2.6257651748971194,2859700
131.15795493125916,2.6259645061728394,2859800
131.38002276420593,2.628291538065844,2859900
131.60191559791565,2.6261856995884774,2860000
131.82395696640015,2.625452674897119,2860100
132.06012535095215,2.624732510288066,2860200
132.26988768577576,2.624891975308642,2860300
132.50641012191772,2.6251768261316872,2860400
132.71607494354248,2.6262024176954735,2860500
132.93616318702698,2.6253716563786007,2860600
133.1579020023346,2.6254070216049383,2860700
133.38093280792236,2.6271547067901233,2860800
133.60157585144043,2.62816808127572,2860900
133.82576894760132,2.626710390946502,2861000
134.0460798740387,2.626480195473251,2861100
134.26916646957397,2.6260018004115224,2861200
134.49062061309814,2.626929012345679,2861300
134.71281266212463,2.626346450617284,2861400
134.9353632926941,2.627576517489712,2861500
135.15774583816528,2.6275347222222223,2861600
135.37907934188843,2.627197145061728,2861700
135.60080742835999,2.6285834619341566,2861800
135.8241240978241,2.6262995113168723,2861900
136.04874444007874,2.6309850823045267,2862000
136.26823377609253,2.6275990226337447,2862100
136.48836278915405,2.628798225308642,2862200
136.71199297904968,2.6290689300411523,2862300
136.93581581115723,2.62931841563786,2862400
137.1565773487091,2.630295138888889,2862500
137.37814807891846,2.630139531893004,2862600
137.60042691230774,2.6290213477366255,2862700
137.82413148880005,2.630624356995885,2862800
138.04582738876343,2.629895190329218,2862900
138.26749062538147,2.628602109053498,2863000
138.4904465675354,2.62974537037037,2863100
138.71151185035706,2.629608410493827,2863200
138.9491741657257,2.630442386831276,2863300
139.15702295303345,2.629753086419753,2863400
139.37985610961914,2.629738940329218,2863500
139.60026574134827,2.629414223251029,2863600
139.82373690605164,2.627259516460905,2863700
140.04575657844543,2.6279365997942388,2863800
140.26817798614502,2.6278703703703705,2863900
140.48957133293152,2.629221322016461,2864000
140.71130204200745,2.6294026491769547,2864100
140.9333622455597,2.6285210905349796,2864200
141.155419588089,2.62960133744856,2864300
141.37786960601807,2.6281063528806583,2864400
141.59858560562134,2.6270608281893004,2864500
141.82186198234558,2.627667824074074,2864600
142.04342913627625,2.6275302211934157,2864700
142.266263961792,2.628469650205761,2864800
142.5096616744995,2.626452546296296,2864900
142.73279762268066,2.6249048353909465,2865000
142.93685817718506,2.626267361111111,2865100
143.1706976890564,2.624493955761317,2865200
143.3856439590454,2.6251208847736627,2865300
143.60594296455383,2.6254320987654323,2865400
143.82480120658875,2.6254102366255143,2865500
144.04851746559143,2.6264705504115224,2865600
144.2660071849823,2.626102752057613,2865700
144.48938417434692,2.6241467335390944,2865800
144.7105827331543,2.6238496656378603,2865900
144.93573546409607,2.6262030606995883,2866000
145.1571490764618,2.6249961419753087,2866100
145.37703371047974,2.6256783693415637,2866200
145.5984799861908,2.625716306584362,2866300
145.83456230163574,2.624193029835391,2866400
146.04263639450073,2.624619341563786,2866500
146.26620602607727,2.624483024691358,2866600
146.48954844474792,2.6255697016460906,2866700
146.71119666099548,2.625801826131687,2866800
146.93261313438416,2.627638888888889,2866900
147.15611290931702,2.6249884259259257,2867000
147.3773102760315,2.6238425925925926,2867100
147.59971976280212,2.625632716049383,2867200
147.82210206985474,2.6251150977366255,2867300
148.04388904571533,2.625798611111111,2867400
148.2664201259613,2.6258789866255143,2867500
148.48857617378235,2.624741512345679,2867600
148.70939421653748,2.625934284979424,2867700
148.93291020393372,2.626040380658436,2867800
149.1560881137848,2.627503858024691,2867900
149.39226770401,2.6267367541152264,2868000
149.59915328025818,2.6276266718106998,2868100
149.8249499797821,2.6254076646090536,2868200
150.04281783103943,2.626015946502058,2868300
150.266019821167,2.627778420781893,2868400
150.48986911773682,2.6266660236625516,2868500
150.70963311195374,2.627233153292181,2868600
150.93200182914734,2.6273083847736625,2868700
151.15551114082336,2.6270640432098764,2868800
151.3756082057953,2.626970807613169,2868900
151.59959506988525,2.6278060699588477,2869000
151.82200288772583,2.6263760288065843,2869100
152.04356241226196,2.6265657150205763,2869200
152.26533913612366,2.626466049382716,2869300
152.48890566825867,2.627284593621399,2869400
152.70936131477356,2.629166666666667,2869500
152.9325566291809,2.62670524691358,2869600
153.17192435264587,2.627963605967078,2869700
153.3759627342224,2.627792566872428,2869800
153.5977339744568,2.6287461419753084,2869900
153.82290172576904,2.6273733281893006,2870000
154.04896187782288,2.6276292438271605,2870100
154.26439714431763,2.6273251028806586,2870200
154.48614835739136,2.6270788323045267,2870300
154.70863223075867,2.627858153292181,2870400
154.9318082332611,2.629261188271605,2870500
155.15329670906067,2.626730324074074,2870600
155.3757679462433,2.6282233796296297,2870700
155.59933257102966,2.6318222736625514,2870800
155.8194260597229,2.6269682355967077,2870900
156.04279470443726,2.6287364969135805,2871000
156.26439380645752,2.626908436213992,2871100
156.48759818077087,2.6283564814814815,2871200
156.70785546302795,2.629365997942387,2871300
156.9307405948639,2.628077417695473,2871400
157.15277695655823,2.630385802469136,2871500
157.39066863059998,2.6281635802469134,2871600
157.59546566009521,2.6294560185185185,2871700
157.82044553756714,2.626872427983539,2871800
158.04172277450562,2.6307818930041154,2871900
158.26387405395508,2.62951774691358,2872000
158.4856777191162,2.6292566872427985,2872100
158.70942378044128,2.6298881172839508,2872200
158.92939448356628,2.6300745884773664,2872300
159.15272521972656,2.6297305812757203,2872400
159.3747136592865,2.6292283950617286,2872500
159.5970642566681,2.6292772633744854,2872600
159.8191945552826,2.6280414094650206,2872700
160.0417137145996,2.630832690329218,2872800
160.26477217674255,2.6294438014403294,2872900
160.4869225025177,2.6322710905349793,2873000
160.71070384979248,2.6287885802469138,2873100
160.92934679985046,2.6308461934156377,2873200
161.15224432945251,2.631087962962963,2873300
161.37453436851501,2.629420010288066,2873400
161.59684133529663,2.6286207561728396,2873500
161.8185453414917,2.6300951646090533,2873600
162.04185843467712,2.6288715277777777,2873700
162.26427459716797,2.6318872170781895,2873800
162.4944770336151,2.627832433127572,2873900
162.70933032035828,2.6286831275720166,2874000
162.93590116500854,2.6320074588477365,2874100
163.15292072296143,2.6299215534979425,2874200
163.3751676082611,2.6287037037037035,2874300
163.59677267074585,2.628866383744856,2874400
163.81714749336243,2.629622556584362,2874500
164.04252910614014,2.629756301440329,2874600
164.28067350387573,2.6302295524691357,2874700
164.48762941360474,2.628841949588477,2874800
164.70696377754211,2.6305362654320987,2874900
164.92873692512512,2.63011445473251,2875000
165.1519148349762,2.6329185956790124,2875100
165.3745036125183,2.6301189557613167,2875200
165.59656596183777,2.627442772633745,2875300
165.81667256355286,2.630424382716049,2875400
166.0403664112091,2.6296257716049385,2875500
166.26342177391052,2.6320717592592593,2875600
166.48516082763672,2.629841820987654,2875700
166.70656442642212,2.6272588734567903,2875800
166.9292905330658,2.629825745884774,2875900
167.15193390846252,2.6284702932098765,2876000
167.37616300582886,2.629639274691358,2876100
167.61875247955322,2.6272826646090537,2876200
167.81707096099854,2.631192772633745,2876300
168.03994727134705,2.6301015946502058,2876400
168.26799416542053,2.629211033950617,2876500
168.4966492652893,2.629000128600823,2876600
168.71620512008667,2.6299537037037037,2876700
168.93792605400085,2.6321579218106996,2876800
169.16478729248047,2.6310063014403293,2876900
169.37540411949158,2.629560185185185,2877000
169.59706592559814,2.629818029835391,2877100
169.81716299057007,2.6297807355967078,2877200
170.0413534641266,2.629130658436214,2877300
170.26265788078308,2.6289023919753087,2877400
170.48493814468384,2.6315104166666665,2877500
170.70936965942383,2.6299305555555557,2877600
170.95041370391846,2.631397890946502,2877700
171.151052236557,2.63152070473251,2877800
171.37134099006653,2.6294450874485595,2877900
171.59449124336243,2.6327289094650204,2878000
171.8195776939392,2.6320293209876544,2878100
172.0379421710968,2.630658436213992,2878200
172.26065015792847,2.630579989711934,2878300
172.4834852218628,2.6300919495884774,2878400
172.7055380344391,2.630850051440329,2878500
172.9270374774933,2.631431970164609,2878600
173.1475546360016,2.6305356224279834,2878700
173.37185525894165,2.6311098251028806,2878800
173.5946090221405,2.631295653292181,2878900
173.81869316101074,2.6300861625514402,2879000
174.03750681877136,2.6316300154320986,2879100
174.2802929878235,2.6318332047325104,2879200
174.48329901695251,2.630443672839506,2879300
174.70662188529968,2.629897119341564,2879400
174.92693376541138,2.6301781121399177,2879500
175.1497025489807,2.6295299639917697,2879600
175.37131667137146,2.628993698559671,2879700
175.5940806865692,2.629182098765432,2879800
175.81573224067688,2.6317406121399176,2879900
176.03822660446167,2.6304899691358026,2880000
176.2608802318573,2.6311040380658435,2880100
176.48214626312256,2.629406507201646,2880200
176.70447635650635,2.632494212962963,2880300
176.92821288108826,2.631213991769547,2880400
177.14901781082153,2.6305870627572014,2880500
177.38617300987244,2.6304520318930042,2880600
177.5934419631958,2.630332433127572,2880700
177.81441950798035,2.6292425411522635,2880800
178.03800511360168,2.6302565586419755,2880900
178.26020503044128,2.631582433127572,2881000
178.48130702972412,2.6310243055555556,2881100
178.70412945747375,2.6304468878600824,2881200
178.92575860023499,2.629073431069959,2881300
179.14987540245056,2.6317399691358023,2881400
179.37036108970642,2.630763245884774,2881500
179.59382343292236,2.628985982510288,2881600
179.81479787826538,2.6310532407407408,2881700
180.0370409488678,2.6307285236625515,2881800
180.26215720176697,2.630309927983539,2881900
180.50375366210938,2.6312628600823045,2882000
180.7038655281067,2.6281481481481483,2882100
180.92581582069397,2.6318936471193415,2882200
181.14637422561646,2.63028420781893,2882300
181.3692557811737,2.6306012088477364,2882400
181.59000062942505,2.6309612911522633,2882500
181.81189799308777,2.631556069958848,2882600
182.03418970108032,2.630985725308642,2882700
182.2576253414154,2.632400977366255,2882800
182.4790542125702,2.6313715277777776,2882900
182.701495885849,2.6313567386831274,2883000
182.92347383499146,2.6290721450617283,2883100
183.1456961631775,2.6311464763374484,2883200
183.36935997009277,2.631793338477366,2883300
183.59176087379456,2.629565329218107,2883400
183.8289999961853,2.631199845679012,2883500
184.03336882591248,2.6299241255144032,2883600
184.25772833824158,2.6300128600823047,2883700
184.47882676124573,2.6307433127572017,2883800
184.69993996620178,2.6307690329218105,2883900
184.9247899055481,2.6310718878600823,2884000
185.14634442329407,2.629652777777778,2884100
185.367422580719,2.63125,2884200
185.59049129486084,2.632477494855967,2884300
185.81398844718933,2.630759387860082,2884400
186.03405165672302,2.629351851851852,2884500
186.2572910785675,2.633051054526749,2884600
186.4779999256134,2.6307825360082306,2884700
186.70005130767822,2.630018004115226,2884800
186.93899965286255,2.632772633744856,2884900
187.1451370716095,2.6322608024691356,2885000
187.36564755439758,2.629537037037037,2885100
187.59071159362793,2.631702031893004,2885200
187.81122875213623,2.63105195473251,2885300
188.03313946723938,2.6311580504115226,2885400
188.25482034683228,2.628993698559671,2885500
188.4785532951355,2.6322929526748973,2885600
188.70001745224,2.6297608024691357,2885700
188.9220917224884,2.631039094650206,2885800
189.14599609375,2.632502572016461,2885900
189.36672043800354,2.6313683127572016,2886000
189.59133458137512,2.630971579218107,2886100
189.8126072883606,2.630619212962963,2886200
190.04925274848938,2.630602494855967,2886300
190.25513124465942,2.6303915895061727,2886400
190.48336338996887,2.6334535751028807,2886500
190.69881319999695,2.6322164351851853,2886600
190.92046999931335,2.6324196244855966,2886700
191.14301371574402,2.6324704218107,2886800
191.36455368995667,2.6310718878600823,2886900
191.58726501464844,2.63095228909465,2887000
191.81119918823242,2.6289641203703704,2887100
192.03260016441345,2.6280690586419753,2887200
192.2549192905426,2.6315515689300413,2887300
192.47799015045166,2.629161522633745,2887400
192.69939541816711,2.6295987654320987,2887500
192.92709136009216,2.632395190329218,2887600
193.15757298469543,2.6296984310699587,2887700
193.36595630645752,2.631943158436214,2887800
193.58718585968018,2.629825745884774,2887900
193.81604838371277,2.631224279835391,2888000
194.03188705444336,2.6311027520576133,2888100
194.25522708892822,2.6306635802469134,2888200
194.47674083709717,2.630963220164609,2888300
194.6997847557068,2.6298321759259258,2888400
194.92124152183533,2.629605195473251,2888500
195.14356517791748,2.629463734567901,2888600
195.36638522148132,2.6290322788065845,2888700
195.58762884140015,2.6297730195473252,2888800
195.8122878074646,2.629110725308642,2888900
196.03166675567627,2.630962577160494,2889000
196.25490188598633,2.63080954218107,2889100
196.497652053833,2.6296836419753085,2889200
196.70014762878418,2.630625643004115,2889300
196.92027473449707,2.630121527777778,2889400
197.14351201057434,2.6311882716049384,2889500
197.3646697998047,2.631215920781893,2889600
197.58727478981018,2.632921167695473,2889700
197.81031250953674,2.6306783693415636,2889800
198.03154063224792,2.6323341049382716,2889900
198.25544452667236,2.6316949588477367,2890000
198.47833156585693,2.63106545781893,2890100
198.6982262134552,2.6309850823045267,2890200
198.91957068443298,2.6302777777777777,2890300
199.1439893245697,2.632298739711934,2890400
199.36421632766724,2.630477752057613,2890500
199.58760046958923,2.6321572788065843,2890600
199.82708978652954,2.629962705761317,2890700
