Time (s),Fluorescence Intensity (a.u.)
0.0,2.6509272119341563
0.6355321407318115,2.6501298868312757
0.9309639930725098,2.6496842849794238
1.1736221313476562,2.6490618569958846
1.3995821475982666,2.65011445473251
1.629106044769287,2.6497138631687243
1.8947548866271973,2.651028163580247
2.06337571144104,2.649616769547325
2.3004934787750244,2.6495254629629628
2.636557102203369,2.648704989711934
2.9435012340545654,2.650076517489712
3.245183229446411,2.648642618312757
3.548640251159668,2.651133616255144
3.840212345123291,2.650457818930041
4.105288028717041,2.6470897633744856
4.396809816360474,2.6484169238683126
4.667255401611328,2.648769933127572
4.944638967514038,2.650400591563786
5.223967790603638,2.6503343621399176
5.491474151611328,2.6494360853909464
5.772855043411255,2.6487075617283953
6.054816961288452,2.647718621399177
6.333141565322876,2.6497485853909466
6.610540151596069,2.6486413323045266
6.883946895599365,2.649236111111111
7.168488264083862,2.650459747942387
7.4402995109558105,2.6516885288065843
7.713353633880615,2.6492856224279837
7.9880547523498535,2.64876350308642
8.268295764923096,2.6500135030864196
8.544060230255127,2.6488104423868313
8.820778369903564,2.6492283950617286
9.091319561004639,2.6500495113168725
9.37208867073059,2.648576388888889
9.650102138519287,2.6519187242798354
9.937496185302734,2.6479989711934158
10.214482069015503,2.649029063786008
10.484778881072998,2.6495987654320987
10.777390480041504,2.6492200360082303
11.042437553405762,2.650346579218107
11.315886974334717,2.6507394547325105
11.597991228103638,2.6498533950617285
11.878052949905396,2.649065072016461
12.159018516540527,2.649070859053498
12.433920860290527,2.6481102109053496
12.71067762374878,2.6455671296296295
12.986453533172607,2.6488278034979422
13.272661685943604,2.6464821244855967
13.541053056716919,2.647266589506173
13.818448066711426,2.646641589506173
14.101436614990234,2.647256301440329
14.381836652755737,2.645422453703704
14.662595272064209,2.645905349794239
14.93365216255188,2.6469187242798355
15.208719968795776,2.6473508230452674
15.492989540100098,2.6442721193415637
15.774295806884766,2.6472389403292182
16.05685782432556,2.646439686213992
16.32850956916809,2.647624742798354
16.601337671279907,2.6457516718106997
16.880928993225098,2.645149819958848
17.15868830680847,2.6464049639917695
17.437219858169556,2.6470003858024693
17.72367548942566,2.6482175925925926
17.998604774475098,2.6464358281893006
18.26852250099182,2.6486149691358025
18.543821811676025,2.6488194444444444
18.824801683425903,2.6494393004115224
19.116482734680176,2.6492168209876543
19.381150245666504,2.6485847479423867
19.667696475982666,2.648414351851852
19.956412076950073,2.648587962962963
20.226431369781494,2.6474479166666667
20.50451683998108,2.6497890946502056
20.762970685958862,2.6497678755144034
21.044466018676758,2.649113297325103
21.319019556045532,2.6490335648148147
21.595277309417725,2.6510558127572015
21.8850200176239,2.6500173611111113
22.16625714302063,2.6505587705761315
22.428205490112305,2.650267489711934
22.708787202835083,2.6511805555555554
22.992526531219482,2.6516576646090533
23.271843910217285,2.649841820987654
23.552948474884033,2.6495736882716048
23.82435703277588,2.65061021090535
24.104156255722046,2.6519669495884775
24.383309364318848,2.6493711419753088
24.660075426101685,2.649059927983539
24.932026147842407,2.6511805555555554
25.218971014022827,2.6493537808641974
25.4972083568573,2.648811728395062
25.772578477859497,2.64862204218107
26.04327392578125,2.648628472222222
26.330892324447632,2.6485667438271605
26.599525213241577,2.648838734567901
26.87396764755249,2.6469695216049383
27.149534463882446,2.6480015432098765
27.430179834365845,2.647909593621399
27.711668729782104,2.6468479938271603
27.991525411605835,2.6455272633744857
28.26643180847168,2.6463001543209876
28.553787231445312,2.646479552469136
28.824295043945312,2.646993955761317
29.105725049972534,2.647181712962963
29.379217863082886,2.6456828703703703
29.664677619934082,2.647508359053498
29.93324899673462,2.648330118312757
30.225488901138306,2.6472768775720166
30.48582148551941,2.6473366769547324
30.76362180709839,2.6484169238683126
31.05191946029663,2.648004758230453
31.32432460784912,2.650205118312757
31.605787992477417,2.650542052469136
31.87665820121765,2.649749228395062
32.15435600280762,2.648897890946502
32.42864441871643,2.649797453703704
32.7161979675293,2.649178883744856
32.988341331481934,2.6479520318930043
33.264463663101196,2.6487114197530865
33.544774532318115,2.6494933127572016
33.82211923599243,2.649428369341564
34.09964871406555,2.6497800925925925
34.3929500579834,2.648275462962963
34.65770673751831,2.6490033436213993
34.93437361717224,2.64825295781893
35.214627265930176,2.646855066872428
35.495107889175415,2.6476150977366255
35.76821780204773,2.6465162037037038
36.04571557044983,2.6481095679012348
36.32799053192139,2.6472575874485598
36.596959829330444,2.6468930041152263
36.87896180152893,2.647845936213992
37.15717625617981,2.6487004886831276
37.4268434047699,2.6478620113168723
37.73020601272583,2.647020318930041
38.048553228378296,2.6487467849794237
38.325915813446045,2.6481352880658435
38.60228991508484,2.6490264917695474
38.8752875328064,2.6488335905349794
39.151713848114014,2.6474305555555557
39.43912434577942,2.649273405349794
39.71746277809143,2.650130529835391
39.99735760688782,2.650527906378601
40.27015733718872,2.65014146090535
40.556018352508545,2.6487795781893
40.82768106460571,2.6490952932098764
41.11091089248657,2.6490605709876545
41.375954151153564,2.6502134773662553
41.6578733921051,2.6521913580246914
41.9233512878418,2.6503125
42.20856285095215,2.652411908436214
42.49494171142578,2.6507683899176953
42.759944677352905,2.650471965020576
43.03957676887512,2.6471553497942386
43.31667613983154,2.6502655606995886
43.606552839279175,2.6505838477366255
43.874382734298706,2.6493280606995886
44.15303063392639,2.649084362139918
44.42744445800781,2.651662808641975
44.69918370246887,2.6498533950617285
44.979387044906616,2.6480208333333333
45.26379156112671,2.6463824588477367
45.53642535209656,2.6472550154320986
45.81738066673279,2.648781507201646
46.10278058052063,2.647883230452675
46.38439702987671,2.647934670781893
46.65004777908325,2.6481860853909467
46.933653593063354,2.6450411522633743
47.202056884765625,2.649707433127572
47.48092269897461,2.6499897119341562
47.768555879592896,2.651155478395062
48.03800439834595,2.6508333333333334
48.31954216957092,2.6499504886831278
48.59661412239075,2.6517296810699587
48.873557567596436,2.650608281893004
49.17339038848877,2.652403549382716
49.47671985626221,2.6502546296296297
49.76968789100647,2.650738811728395
50.04344058036804,2.650652649176955
50.32351517677307,2.6496836419753085
50.592060565948486,2.6504417438271606
50.873043060302734,2.6514789094650206
51.14373326301575,2.651050025720165
51.4363272190094,2.6488586676954733
51.70828056335449,2.649591049382716
51.996543645858765,2.6507285236625515
52.259947538375854,2.649467592592593
52.54134154319763,2.650531764403292
52.8152334690094,2.649414223251029
53.094074964523315,2.650150462962963
53.379931926727295,2.6495363940329217
53.648457527160645,2.6502970679012345
53.931174993515015,2.6495441100823047
54.203397035598755,2.650697016460905
54.48625874519348,2.6520955504115227
54.77450680732727,2.650590920781893
55.03889203071594,2.648435570987654
55.31492733955383,2.6500559413580245
55.591557264328,2.650100308641975
55.87166500091553,2.650309927983539
56.15392279624939,2.6494958847736627
56.42965340614319,2.6513078703703705
56.69895553588867,2.651630658436214
56.987757444381714,2.6478221450617285
57.25826406478882,2.6513618827160492
57.55653762817383,2.650335005144033
57.87184143066406,2.6501511059670784
58.14903378486633,2.6512995113168722
58.43116736412048,2.6506063528806583
58.70463442802429,2.6498855452674897
58.99694323539734,2.6508056841563787
59.265151262283325,2.6497710905349794
59.53450083732605,2.651866640946502
59.81803917884827,2.6508654835390946
60.10040211677551,2.6498276748971192
60.37928342819214,2.6507092335390947
60.656907081604004,2.650868698559671
60.92574691772461,2.6502919238683127
61.201109647750854,2.650162680041152
61.4783353805542,2.6499440586419754
61.764538049697876,2.648755787037037
62.03749918937683,2.65117862654321
62.324729681015015,2.650275205761317
62.589834213256836,2.6495640432098764
62.87097668647766,2.6485165895061726
63.14418148994446,2.649448945473251
63.4409236907959,2.648073559670782
63.71251559257507,2.648633616255144
63.988407135009766,2.647753343621399
64.2666745185852,2.6491377314814817
64.533607006073,2.6500848765432097
64.81305861473083,2.6485345936213993
65.0888147354126,2.646960519547325
65.37024593353271,2.6481037808641976
65.64023542404175,2.647246656378601
65.9329674243927,2.647863297325103
66.22072291374207,2.647119341563786
66.47835516929626,2.647608667695473
66.75830149650574,2.647071116255144
67.04232001304626,2.6474678497942388
67.33071613311768,2.64873649691358
67.60177683830261,2.648256172839506
67.8728837966919,2.6480388374485595
68.15718483924866,2.64863554526749
68.42391753196716,2.6495775462962965
68.70163774490356,2.6500848765432097
69.00896048545837,2.65095228909465
69.31944346427917,2.649221322016461
69.59171056747437,2.6496804269547325
69.87027859687805,2.6500411522633747
70.15121293067932,2.6495666152263375
70.42572522163391,2.650164609053498
70.71030759811401,2.6490528549382715
70.98073506355286,2.648045267489712
71.25828623771667,2.6495222479423868
71.53814053535461,2.650979938271605
71.81571340560913,2.649480452674897
72.09993505477905,2.650834619341564
72.37593078613281,2.6510345936213993
72.65215110778809,2.6526858281893
72.92161726951599,2.6518795010288065
73.19199728965759,2.6521437757201647
73.47701740264893,2.6511824845679013
73.75004315376282,2.650596064814815
74.02762269973755,2.6497003600823046
74.31113529205322,2.6506127829218107
74.589031457901,2.6505857767489713
74.85990118980408,2.6482407407407407
75.15286636352539,2.649549254115226
75.42934989929199,2.649002700617284
75.69943690299988,2.6500263631687244
75.9753577709198,2.6501202417695473
76.24725127220154,2.647431841563786
76.53160429000854,2.6490670010288064
76.81279397010803,2.6475270061728393
77.09419751167297,2.6499639917695474
77.36454486846924,2.649335776748971
77.63518238067627,2.6476665380658435
77.93899035453796,2.6470749742798354
78.19821214675903,2.6480285493827163
78.48279023170471,2.6462088477366255
78.75143837928772,2.6465470679012344
79.02983617782593,2.6478510802469137
79.30542397499084,2.6475610853909464
79.59745645523071,2.646035236625514
79.86793255805969,2.6476433899176954
80.13936996459961,2.648202160493827
80.41556239128113,2.6469245113168722
80.70391345024109,2.646655735596708
80.97555017471313,2.6492065329218106
81.24940586090088,2.647715406378601
81.5311803817749,2.6509117798353907
81.81045532226562,2.64873649691358
82.08853816986084,2.653425282921811
82.36498355865479,2.648704346707819
82.64152002334595,2.648883101851852
82.91260504722595,2.6497286522633745
83.19057750701904,2.650920138888889
83.46615433692932,2.651723894032922
83.75639057159424,2.6507085905349794
84.02906227111816,2.6496399176954735
84.31538558006287,2.647636959876543
84.57490086555481,2.6493897890946503
84.8526337146759,2.6469103652263373
85.13572096824646,2.648257458847737
85.41826152801514,2.64920396090535
85.69083762168884,2.6485969650205763
85.96615076065063,2.6478433641975307
86.24277973175049,2.645670010288066
86.53368282318115,2.6473019547325105
86.82168126106262,2.646865997942387
87.07370352745056,2.647350180041152
87.35472416877747,2.6466068672839507
87.6448802947998,2.649506172839506
87.9168872833252,2.649759516460905
88.18887257575989,2.6484670781893005
88.47034358978271,2.6494618055555557
88.74805235862732,2.6479835390946502
89.0323588848114,2.6511310442386833
89.31081175804138,2.6494225823045268
89.57521343231201,2.649639274691358
89.864342212677,2.6499549897119343
90.14235401153564,2.649312628600823
90.40832567214966,2.649866898148148
90.69513368606567,2.649553112139918
90.96082186698914,2.6511664094650205
91.24396324157715,2.6510011574074075
91.5177161693573,2.6503793724279836
91.80085921287537,2.6499723508230453
92.08190131187439,2.6499189814814814
92.35033631324768,2.6499691358024693
92.65507698059082,2.651767618312757
92.90873384475708,2.649848894032922
93.1838788986206,2.651678883744856
93.4625780582428,2.6504584619341562
93.75647282600403,2.652178497942387
94.02318811416626,2.6503144290123455
94.2968602180481,2.650531121399177
94.57803082466125,2.648672839506173
94.8486487865448,2.6482246656378603
95.12401533126831,2.6493955761316874
95.43946623802185,2.650744598765432
95.73940253257751,2.6503542952674897
96.02540493011475,2.648988554526749
96.29718518257141,2.6497980967078187
96.57774186134338,2.648162937242798
96.85483455657959,2.647068544238683
97.12800288200378,2.6497427983539095
97.4094660282135,2.6509445730452676
97.69248747825623,2.65034079218107
97.96058630943298,2.6508481224279836
98.24436068534851,2.6503362911522634
98.5354392528534,2.651017875514403
98.80148124694824,2.652474279835391
99.07034039497375,2.6509047067901235
99.35234498977661,2.6507516718106996
99.63841366767883,2.651473765432099
99.91637706756592,2.6509580761316873
100.18427348136902,2.650731095679012
100.4650251865387,2.649014917695473
100.74045586585999,2.6526974022633745
101.0221209526062,2.6494823816872426
101.30971312522888,2.649904192386831
101.57485628128052,2.650383230452675
101.84976720809937,2.650940072016461
102.13622689247131,2.6521000514403292
102.40340328216553,2.6520164609053496
102.68527126312256,2.649775591563786
102.97715139389038,2.651346450617284
103.24400019645691,2.649778806584362
103.5165627002716,2.649738297325103
103.80211448669434,2.6511664094650205
104.0863528251648,2.649993569958848
104.35191798210144,2.6513856738683126
104.63878154754639,2.650650720164609
104.9119176864624,2.6514519032921813
105.18709349632263,2.651392103909465
105.47314548492432,2.6505857767489713
105.74154806137085,2.6498450360082306
106.0151035785675,2.6499871399176955
106.3012626171112,2.651894933127572
106.57823991775513,2.6504411008230453
106.8719391822815,2.6506860853909466
107.12438774108887,2.650518904320988
107.43186807632446,2.651042309670782
107.76923704147339,2.6520524691358025
108.08433675765991,2.6496412037037036
108.35167384147644,2.650280349794239
108.63216280937195,2.650318287037037
108.91019034385681,2.6502263374485597
109.19586873054504,2.6512654320987656
109.46542501449585,2.6492367541152264
109.75394201278687,2.6509831532921813
110.01621437072754,2.6501658950617286
110.29275870323181,2.6489673353909464
110.56771492958069,2.649818672839506
110.85571122169495,2.651311728395062
111.12634754180908,2.651194058641975
111.40999412536621,2.650946502057613
111.68946290016174,2.650999871399177
111.96497297286987,2.6488303755144034
112.23906755447388,2.6499099794238683
112.5269422531128,2.6475327932098764
112.7998776435852,2.649469521604938
113.06846380233765,2.650895061728395
113.35539197921753,2.6492155349794237
113.6329255104065,2.647642103909465
113.90710401535034,2.6467078189300413
114.18244099617004,2.6476208847736626
114.47340416908264,2.6485487397119343
114.74223494529724,2.650187114197531
115.02323889732361,2.6480671296296294
115.31563210487366,2.646463477366255
115.57526278495789,2.6488432355967078
115.8516755104065,2.646311728395062
116.13002228736877,2.6475925925925927
116.41089344024658,2.6469810956790125
116.69081950187683,2.6488818158436214
116.96453738212585,2.648775720164609
117.23780822753906,2.647034465020576
117.51036930084229,2.6469926697530863
117.81925439834595,2.648292824074074
118.12851762771606,2.6494849537037037
118.4071671962738,2.645057227366255
118.68644714355469,2.649890046296296
118.96668004989624,2.6501125257201648
119.23670196533203,2.6486432613168724
119.51609373092651,2.650079089506173
119.79774022102356,2.6482638888888888
120.0809531211853,2.650007716049383
120.35644316673279,2.6466544495884774
120.63136911392212,2.648440715020576
120.90414261817932,2.6493653549382716
121.20041966438293,2.651583076131687
121.46189641952515,2.6510043724279835
121.73692440986633,2.650016718106996
122.01563000679016,2.6509246399176956
122.29784917831421,2.6504365997942387
122.56866121292114,2.6501543209876544
122.85209321975708,2.6496000514403293
123.13556575775146,2.6504018775720164
123.40736699104309,2.6504963991769546
123.69912576675415,2.650817901234568
123.9725456237793,2.649738940329218
124.24305272102356,2.6512377829218106
124.52133798599243,2.6513027263374487
124.79890441894531,2.6502231224279837
125.072256565094,2.6487712191358024
125.34815502166748,2.649738297325103
125.63872766494751,2.649099794238683
125.90467405319214,2.650057227366255
126.18459153175354,2.650863554526749
126.48274064064026,2.6486207561728397
126.74586248397827,2.647928240740741
127.02041959762573,2.6478253600823045
127.30126953125,2.6487429269547325
127.57827711105347,2.6487885802469138
127.85033106803894,2.6482619598765433
128.12465071678162,2.647775848765432
128.4067361354828,2.647534079218107
128.68486499786377,2.6487030606995883
128.95904517173767,2.6458404063786007
129.2386817932129,2.6465920781893004
129.53453969955444,2.648070344650206
129.79478096961975,2.647651105967078
130.0758888721466,2.647880658436214
130.3535509109497,2.6476935442386833
130.6356098651886,2.647795781893004
130.90572929382324,2.6510866769547325
131.17693519592285,2.649207818930041
131.45821619033813,2.647483924897119
131.73947072029114,2.6503362911522634
132.0212824344635,2.650449459876543
132.29232835769653,2.6499138374485596
132.5788242816925,2.648856095679012
132.84999823570251,2.6499961419753086
133.13065195083618,2.6513001543209875
133.41251587867737,2.6510956790123457
133.67982649803162,2.648469650205761
133.95444011688232,2.6491956018518517
134.24005794525146,2.6486953446502057
134.51575231552124,2.650317644032922
134.81035780906677,2.6479108796296296
135.07028532028198,2.6466544495884774
135.35114765167236,2.6496784979423866
135.6260120868683,2.6474299125514404
135.90844988822937,2.648082561728395
136.17666268348694,2.6490374228395064
136.4650058746338,2.648892103909465
136.73471021652222,2.64622170781893
137.02043056488037,2.648617541152263
137.31616020202637,2.6472833076131685
137.62877821922302,2.6494302983539093
137.8999104499817,2.647127700617284
138.18627738952637,2.6481301440329217
138.46441316604614,2.6483757716049383
138.7375454902649,2.649223894032922
139.01610684394836,2.6492618312757203
139.29651355743408,2.6510545267489714
139.56934642791748,2.649508744855967
139.8604335784912,2.6491923868312757
140.12149000167847,2.6504398148148147
140.39657950401306,2.6513708847736623
140.67932057380676,2.649417438271605
140.95897340774536,2.6504873971193414
141.23514866828918,2.6493537808641974
141.5150921344757,2.6498283179012345
141.7873866558075,2.6490464248971195
142.06577110290527,2.650349151234568
142.34433031082153,2.650533693415638
142.63672971725464,2.650278420781893
142.90507578849792,2.65015625
143.18076944351196,2.650324074074074
143.45957684516907,2.6515361368312758
143.73224329948425,2.650832047325103
144.01671361923218,2.6499980709876545
144.28727388381958,2.6507375257201646
144.57364702224731,2.649889403292181
144.84691071510315,2.649960776748971
145.12467312812805,2.649897119341564
145.40767192840576,2.648517875514403
145.68100571632385,2.647789351851852
145.952956199646,2.6477057613168724
146.24262237548828,2.6482317386831276
146.51616787910461,2.646867283950617
146.79663157463074,2.6484921553497944
147.07036542892456,2.6499781378600824
147.35638689994812,2.6478446502057613
147.64385986328125,2.6503536522633744
147.9039695262909,2.6498141718106996
148.1858344078064,2.6496662808641975
148.4689862728119,2.6496553497942386
148.73946237564087,2.6503292181069957
149.01614451408386,2.6510300925925927
149.29073286056519,2.6483474794238684
149.57143640518188,2.6516062242798353
149.85395741462708,2.650590277777778
150.1218023300171,2.6498508230452673
150.41963505744934,2.649889403292181
150.68063044548035,2.6504308127572016
150.9537229537964,2.649499742798354
151.23430156707764,2.650366512345679
151.51187944412231,2.6494900977366256
151.7936670780182,2.649613554526749
152.06862688064575,2.6497717335390947
152.3454201221466,2.6493614969135804
152.64721846580505,2.6504700360082305
152.98841667175293,2.6517309670781892
153.3007869720459,2.651507844650206
153.5774359703064,2.648253600823045
153.84646010398865,2.647997685185185
154.1236915588379,2.6483706275720165
154.4022717475891,2.6505066872427983
154.67990112304688,2.6491814557613167
154.9521930217743,2.650889917695473
155.23214411735535,2.649642489711934
155.533921957016,2.649499742798354
155.85937905311584,2.651117541152263
156.12215161323547,2.6503311471193416
156.39658117294312,2.650270061728395
156.67802953720093,2.65061021090535
156.9576539993286,2.6522878086419754
157.2379014492035,2.6505246913580245
157.51923084259033,2.6486947016460904
157.79598116874695,2.649761445473251
158.08695197105408,2.64974537037037
158.40178728103638,2.651102109053498
158.6886785030365,2.6495267489711933
158.96197247505188,2.649191100823045
159.23061347007751,2.6500745884773664
159.51091742515564,2.6514814814814813
159.7958481311798,2.651335519547325
160.06485223770142,2.6514326131687245
160.34651374816895,2.6507857510288066
160.6367645263672,2.650727237654321
160.91138076782227,2.650096450617284
161.1778266429901,2.650472608024691
161.45673036575317,2.6508616255144033
161.73984289169312,2.6504668209876545
162.00870633125305,2.6503684413580246
162.29369831085205,2.648692772633745
162.56035923957825,2.651862782921811
162.84615564346313,2.6501723251028806
163.12387418746948,2.6499620627572016
163.4123706817627,2.6496161265432097
163.68311166763306,2.650470679012346
163.9507246017456,2.6475102880658437
164.23472356796265,2.648222093621399
164.5070447921753,2.647590663580247
164.78819847106934,2.647403549382716
165.05619978904724,2.6473135288065843
165.33794450759888,2.6461805555555555
165.61734914779663,2.6473996913580247
165.90910267829895,2.646712319958848
166.1852650642395,2.6482118055555555
166.45451021194458,2.647625385802469
166.72912573814392,2.6454218106995886
167.00815606117249,2.6479308127572017
167.28072381019592,2.64862204218107
167.57964730262756,2.64819637345679
167.8404631614685,2.648519161522634
168.11750149726868,2.6480041152263376
168.39252853393555,2.6485783179012348
168.69829058647156,2.648738425925926
169.00261545181274,2.648349408436214
169.29003953933716,2.6486201131687244
169.55832958221436,2.649400077160494
169.84150576591492,2.6507349537037035
170.12093305587769,2.6518936471193415
170.3905041217804,2.650891203703704
170.6721203327179,2.648303755144033
170.95951008796692,2.6493512088477367
171.24354219436646,2.6494740226337448
171.50991010665894,2.6486117541152265
171.78004503250122,2.650736239711934
172.07323813438416,2.651909079218107
172.33601927757263,2.6505722736625517
172.62239742279053,2.649420653292181
172.89811944961548,2.64945987654321
173.1748263835907,2.649423225308642
173.46069598197937,2.6505234053497944
173.75252985954285,2.646957947530864
174.06530666351318,2.64862204218107
174.33674263954163,2.6500135030864196
174.61763429641724,2.651727109053498
174.90341711044312,2.650931712962963
175.17010498046875,2.6487429269547325
175.45835757255554,2.6505574845679014
175.72321891784668,2.649918338477366
176.01647782325745,2.647020318930041
176.29620671272278,2.6508815586419754
176.56226468086243,2.647986111111111
176.84530091285706,2.6474582047325104
177.11998462677002,2.6488085133744854
177.39097380638123,2.6486914866255145
177.6796898841858,2.6496997170781893
177.94898557662964,2.6454584619341563
178.22851061820984,2.646601723251029
178.50028944015503,2.644994212962963
178.78766441345215,2.6465850051440327
179.07813596725464,2.6461413323045266
179.33570861816406,2.6470679012345677
179.61465644836426,2.6452115483539096
179.90604496002197,2.6472395833333335
180.16768217086792,2.646026234567901
